Left Bin Edge (nm)	Right Bin Edge (nm)	Bin Center (nm)		Top of Atm Intensity (erg/s/nm/cm2)		Total Surface Flux (erg/s/nm/cm2)		Total Intensity at BOA (erg/s/nm/cm2)		Total Surface Intensity (erg/s/nm/cm2)		Total Surface Diffuse Intensity (erg/s/nm/cm2)		Total Surface Direct Intensity (erg/s/nm/cm2)
1.3000000e+02		1.3500000e+02		1.3250000e+02		1.4250000e-01		2.2260182e-151		2.6930218e-152		3.8555767e-151		3.8555767e-151		0.0000000e+00
1.3500000e+02		1.4000000e+02		1.3750000e+02		9.1063600e-02		1.6557073e-145		2.2602138e-146		2.8677692e-145		2.8677692e-145		0.0000000e+00
1.4000000e+02		1.4500000e+02		1.4250000e+02		1.0739500e-01		4.7384354e-140		7.2378717e-141		8.2072109e-140		8.2072109e-140		0.0000000e+00
1.4500000e+02		1.5000000e+02		1.4750000e+02		1.4822000e-01		5.7512279e-135		9.7552881e-136		9.9614189e-135		9.9614189e-135		0.0000000e+00
1.5000000e+02		1.5500000e+02		1.5250000e+02		2.4762300e-01		3.2217142e-130		6.0268187e-131		5.5801726e-130		5.5801726e-130		0.0000000e+00
1.5500000e+02		1.6000000e+02		1.5750000e+02		3.0285700e-01		8.9675082e-126		1.8386395e-126		1.5532180e-125		1.5532180e-125		0.0000000e+00
1.6000000e+02		1.6500000e+02		1.6250000e+02		4.2807700e-01		1.3231898e-121		2.9568025e-122		2.2918320e-121		2.2918320e-121		0.0000000e+00
1.6500000e+02		1.7000000e+02		1.6750000e+02		7.5940300e-01		1.0956834e-117		2.6548109e-118		1.8977793e-117		1.8977793e-117		0.0000000e+00
1.7000000e+02		1.7500000e+02		1.7250000e+02		1.2673900e+00		5.3546924e-114		1.4002405e-114		9.2745992e-114		9.2745992e-114		0.0000000e+00
1.7540000e+02		1.7700000e+02		1.7620000e+02		1.2266800e+00		2.1022629e-111		5.8005782e-112		3.6412261e-111		3.6412261e-111		0.0000000e+00
1.7700000e+02		1.7860000e+02		1.7780000e+02		1.4671500e+00		2.5743265e-110		7.2652601e-111		4.4588642e-110		4.4588642e-110		0.0000000e+00
1.7860000e+02		1.8020000e+02		1.7940000e+02		1.6479400e+00		3.0134060e-109		8.6960905e-110		5.2193723e-109		5.2193723e-109		0.0000000e+00
1.8020000e+02		1.8180000e+02		1.8100000e+02		2.0863300e+00		3.3759351e-108		9.9562497e-109		5.8472911e-108		5.8472911e-108		0.0000000e+00
1.8180000e+02		1.8350000e+02		1.8270000e+02		2.0418800e+00		4.1974240e-107		1.2669823e-107		7.2701517e-107		7.2701517e-107		0.0000000e+00
1.8350000e+02		1.8520000e+02		1.8440000e+02		1.8581600e+00		4.9796716e-106		1.5379134e-106		8.6250442e-106		8.6250442e-106		0.0000000e+00
1.8520000e+02		1.8690000e+02		1.8610000e+02		2.2747700e+00		5.6442445e-105		1.7831244e-105		9.7761182e-105		9.7761182e-105		0.0000000e+00
1.8690000e+02		1.8870000e+02		1.8780000e+02		2.7809900e+00		6.1185271e-104		1.9867688e-104		1.0597600e-103		1.0597600e-103		0.0000000e+00
1.8870000e+02		1.9050000e+02		1.8960000e+02		3.2670800e+00		7.2803005e-103		2.4312163e-103		1.2609850e-102		1.2609850e-102		0.0000000e+00
1.9050000e+02		1.9230000e+02		1.9140000e+02		3.8247800e+00		8.2634625e-102		2.8445269e-102		1.4312737e-101		1.4312737e-101		0.0000000e+00
1.9230000e+02		1.9420000e+02		1.9330000e+02		3.7349400e+00		1.0204672e-100		3.7001051e-101		1.7675010e-100		1.7675010e-100		0.0000000e+00
1.9420000e+02		1.9610000e+02		1.9520000e+02		5.1244000e+00		1.1966173e-99		4.7377444e-100		2.0726019e-99		2.0726019e-99		0.0000000e+00
1.9610000e+02		1.9800000e+02		1.9710000e+02		6.1048500e+00		1.3365797e-98		5.7610132e-99		2.3150239e-98		2.3150239e-98		1.3650794e-290
1.9800000e+02		2.0000000e+02		1.9900000e+02		6.3420200e+00		6.2757977e-83		2.0849341e-76		1.0870000e-82		1.0870000e-82		5.6222501e-98
2.0000000e+02		2.0200000e+02		2.0100000e+02		7.5149300e+00		4.0708713e-40		1.1380633e-37		7.0509560e-40		7.0509560e-40		1.2286562e-48
2.0200000e+02		2.0410000e+02		2.0310000e+02		8.2966900e+00		1.1845722e-29		8.5692173e-28		2.0517392e-29		2.0517390e-29		1.6233031e-36
2.0410000e+02		2.0620000e+02		2.0520000e+02		1.0149400e+01		1.2559440e-28		7.8901649e-27		2.1753589e-28		2.1753585e-28		3.5119065e-35
2.0620000e+02		2.0830000e+02		2.0730000e+02		1.2284200e+01		1.3940762e-27		7.4603252e-26		2.4146110e-27		2.4146102e-27		8.0472221e-34
2.0830000e+02		2.1050000e+02		2.0940000e+02		1.9586800e+01		1.8530897e-26		8.3430085e-25		3.2096458e-26		3.2096436e-26		2.2121797e-32
2.1050000e+02		2.1280000e+02		2.1170000e+02		2.9151400e+01		3.2044758e-25		1.1619578e-23		5.5503161e-25		5.5503075e-25		8.5645029e-31
2.1280000e+02		2.1510000e+02		2.1400000e+02		3.3725100e+01		3.3688864e-24		1.0245566e-22		5.8350848e-24		5.8350664e-24		1.8473553e-29
2.1510000e+02		2.1740000e+02		2.1630000e+02		3.3526300e+01		9.2848609e-24		2.3324987e-22		1.6081864e-23		1.6081766e-23		9.7804593e-29
2.1740000e+02		2.2000000e+02		2.1870000e+02		3.7749300e+01		2.0826571e-23		4.1058172e-22		3.6072738e-23		3.6072298e-23		4.4039503e-28
2.2000000e+02		2.2220000e+02		2.2110000e+02		4.8214500e+01		1.2632372e-23		2.0510008e-22		2.1879968e-23		2.1879531e-23		4.3782625e-28
2.2220000e+02		2.2470000e+02		2.2350000e+02		5.6925500e+01		3.2456321e-24		4.3860977e-23		5.6216215e-24		5.6214588e-24		1.6265711e-28
2.2470000e+02		2.2730000e+02		2.2600000e+02		4.5324200e+01		3.9157134e-25		4.2174100e-24		6.7822514e-25		6.7819756e-25		2.7588777e-29
2.2730000e+02		2.2990000e+02		2.2860000e+02		4.7149500e+01		1.6351251e-26		1.4412543e-25		2.8321370e-26		2.8320085e-26		1.2854774e-30
2.2990000e+02		2.3260000e+02		2.3130000e+02		4.9976000e+01		1.7756473e-28		1.3261168e-27		3.0755274e-28		3.0754075e-28		1.1990004e-32
2.3260000e+02		2.3530000e+02		2.3400000e+02		4.3421000e+01		5.7801403e-31		3.7370553e-30		1.0011533e-30		1.0011263e-30		2.7016558e-35
2.3530000e+02		2.3810000e+02		2.3670000e+02		4.7981200e+01		1.3653007e-33		7.7454862e-33		2.3647753e-33		2.3647371e-33		3.8223390e-38
2.3810000e+02		2.4100000e+02		2.3960000e+02		4.1484000e+01		1.1438686e-36		5.8711034e-36		1.9812408e-36		1.9812244e-36		1.6369922e-41
2.4100000e+02		2.4390000e+02		2.4250000e+02		6.2188400e+01		7.7479088e-39		3.4013041e-38		1.3419781e-38		1.3419713e-38		6.8139803e-44
2.4390000e+02		2.4690000e+02		2.4540000e+02		5.3723500e+01		8.1363208e-41		3.0453392e-40		1.4092528e-40		1.4092478e-40		4.9195801e-46
2.4690000e+02		2.5000000e+02		2.4850000e+02		5.0836200e+01		1.0542818e-43		4.0545678e-43		1.8260701e-43		1.8260670e-43		3.1401134e-49
2.5000000e+02		2.5320000e+02		2.5160000e+02		4.7890400e+01		1.8978861e-45		7.4027196e-45		3.2872357e-45		3.2872317e-45		4.0153325e-51
2.5320000e+02		2.5640000e+02		2.5480000e+02		7.0933400e+01		5.1709286e-46		2.0208685e-45		8.9563125e-46		8.9563018e-46		1.0682312e-51
2.5640000e+02		2.5970000e+02		2.5810000e+02		1.1553000e+02		7.0692957e-45		2.7110997e-44		1.2244383e-44		1.2244358e-44		2.4619404e-50
2.5970000e+02		2.6320000e+02		2.6150000e+02		9.8389500e+01		8.9781590e-43		3.3260427e-42		1.5550638e-42		1.5550559e-42		7.9655540e-48
2.6320000e+02		2.6670000e+02		2.6500000e+02		2.2932900e+02		6.5808982e-39		2.3172053e-38		1.1398481e-38		1.1398253e-38		2.2724192e-43
2.6670000e+02		2.7030000e+02		2.6850000e+02		2.4674100e+02		4.2247726e-34		1.3926852e-33		7.3176335e-34		7.3167925e-34		8.4092503e-38
2.7030000e+02		2.7400000e+02		2.7220000e+02		2.1711500e+02		1.0387309e-28		3.1838183e-28		1.7993231e-28		1.7979175e-28		1.4056378e-31
2.7400000e+02		2.7780000e+02		2.7590000e+02		1.9715400e+02		8.0996442e-23		2.3016194e-22		1.4039220e-22		1.3962900e-22		7.6320334e-25
2.7780000e+02		2.8170000e+02		2.7980000e+02		1.5010700e+02		2.7120730e-17		7.2132572e-17		4.7138233e-17		4.5915985e-17		1.2222484e-18
2.8170000e+02		2.8570000e+02		2.8370000e+02		2.6621400e+02		7.9121762e-12		1.9946125e-11		1.3837307e-11		1.2844463e-11		9.9284454e-13
2.8570000e+02		2.8990000e+02		2.8780000e+02		3.5351300e+02		3.1040338e-07		7.5006394e-07		5.4673612e-07		4.7880012e-07		6.7936001e-08
2.8990000e+02		2.9410000e+02		2.9200000e+02		5.6396800e+02		9.0582322e-04		2.1222076e-03		1.6043132e-03		1.3402230e-03		2.6409023e-04
2.9410000e+02		2.9850000e+02		2.9630000e+02		5.1832400e+02		1.2215132e-01		2.8012612e-01		2.1720046e-01		1.7519122e-01		4.2009241e-02
2.9850000e+02		3.0300000e+02		3.0080000e+02		4.7287300e+02		2.4704362e+00		5.5853276e+00		4.4063982e+00		3.4548960e+00		9.5150227e-01
3.0300000e+02		3.0770000e+02		3.0540000e+02		5.8580300e+02		1.8277429e+01		4.0952935e+01		3.2694790e+01		2.4951876e+01		7.7429139e+00
3.0770000e+02		3.1250000e+02		3.1010000e+02		6.6095100e+02		5.6352465e+01		1.2556205e+02		1.0111151e+02		7.4941041e+01		2.6170469e+01
3.1250000e+02		3.1750000e+02		3.1500000e+02		6.8647600e+02		1.0389496e+02		2.3069378e+02		1.8703848e+02		1.3413942e+02		5.2899059e+01
3.1750000e+02		3.2250000e+02		3.2000000e+02		7.3661700e+02		1.5319329e+02		3.3947362e+02		2.7678460e+02		1.9135015e+02		8.5434450e+01
3.2250000e+02		3.2750000e+02		3.2500000e+02		8.5003800e+02		2.1131865e+02		4.6776961e+02		3.8323121e+02		2.5472491e+02		1.2850630e+02
3.2750000e+02		3.3250000e+02		3.3000000e+02		9.8170500e+02		2.6886380e+02		5.9487451e+02		4.8944507e+02		3.1210318e+02		1.7734188e+02
3.3250000e+02		3.3750000e+02		3.3500000e+02		9.2670900e+02		2.7107932e+02		5.9969766e+02		4.9534680e+02		3.0259650e+02		1.9275030e+02
3.3750000e+02		3.4250000e+02		3.4000000e+02		9.7621300e+02		2.9768899e+02		6.5865322e+02		5.4600725e+02		3.1913747e+02		2.2686978e+02
3.4250000e+02		3.4500000e+02		3.4380000e+02		9.4128000e+02		2.9359000e+02		6.4972659e+02		5.3997921e+02		3.0511073e+02		2.3486848e+02
3.4500000e+02		3.5500000e+02		3.5000000e+02		9.7671400e+02		3.1494916e+02		6.9733466e+02		5.8183273e+02		3.1070076e+02		2.7113197e+02
3.5500000e+02		3.6500000e+02		3.6000000e+02		1.0047900e+03		3.3799504e+02		7.4913618e+02		6.2866352e+02		3.0592374e+02		3.2273978e+02
3.6500000e+02		3.7500000e+02		3.7000000e+02		1.1334100e+03		3.9529615e+02		8.7718339e+02		7.3989299e+02		3.2772547e+02		4.1216752e+02
3.7500000e+02		3.8500000e+02		3.8000000e+02		1.0774300e+03		3.8804950e+02		8.6217866e+02		7.3055474e+02		2.9440270e+02		4.3615205e+02
3.8500000e+02		3.9500000e+02		3.9000000e+02		1.0396200e+03		3.8538247e+02		8.5732044e+02		7.2939145e+02		2.6744249e+02		4.6194895e+02
3.9500000e+02		4.0500000e+02		4.0000000e+02		1.4906300e+03		5.6694700e+02		1.2627896e+03		1.0782198e+03		3.5988396e+02		7.1833580e+02
4.0500000e+02		4.1500000e+02		4.1000000e+02		1.7596600e+03		6.8518217e+02		1.5278396e+03		1.3087959e+03		3.9798477e+02		9.1081111e+02
4.1500000e+02		4.2500000e+02		4.2000000e+02		1.7934800e+03		7.1309211e+02		1.5917822e+03		1.3675170e+03		3.7923085e+02		9.8828616e+02
4.2500000e+02		4.3500000e+02		4.3000000e+02		1.6500900e+03		6.6849743e+02		1.4937149e+03		1.2865986e+03		3.2576627e+02		9.6083237e+02
4.3500000e+02		4.4500000e+02		4.4000000e+02		1.8519900e+03		7.6219645e+02		1.7048575e+03		1.4716934e+03		3.4065514e+02		1.1310382e+03
4.4500000e+02		4.5500000e+02		4.5000000e+02		2.0360800e+03		8.5103091e+02		1.9050436e+03		1.6480332e+03		3.4924657e+02		1.2987866e+03
4.5500000e+02		4.6500000e+02		4.6000000e+02		2.0479900e+03		8.6711340e+02		1.9424123e+03		1.6836224e+03		3.2711225e+02		1.3565101e+03
4.6500000e+02		4.7500000e+02		4.7000000e+02		2.0297900e+03		8.6937574e+02		1.9490287e+03		1.6920577e+03		3.0183307e+02		1.3902247e+03
4.7500000e+02		4.8500000e+02		4.8000000e+02		2.0206200e+03		8.7324627e+02		1.9588035e+03		1.7032727e+03		2.7937743e+02		1.4238953e+03
4.8500000e+02		4.9500000e+02		4.9000000e+02		1.9388300e+03		8.4557484e+02		1.8979273e+03		1.6525367e+03		2.4959820e+02		1.4029385e+03
4.9500000e+02		5.0500000e+02		5.0000000e+02		1.9358300e+03		8.4792879e+02		1.9045921e+03		1.6600900e+03		2.3120545e+02		1.4288845e+03
5.0500000e+02		5.1500000e+02		5.1000000e+02		1.9017600e+03		8.3641446e+02		1.8798781e+03		1.6401951e+03		2.1094810e+02		1.4292470e+03
5.1500000e+02		5.2500000e+02		5.2000000e+02		1.8193300e+03		8.0612601e+02		1.8120397e+03		1.5831184e+03		1.8832288e+02		1.3947955e+03
5.2500000e+02		5.3500000e+02		5.3000000e+02		1.8825000e+03		8.3321260e+02		1.8739100e+03		1.6385035e+03		1.8048850e+02		1.4580150e+03
5.3500000e+02		5.4500000e+02		5.4000000e+02		1.8476400e+03		8.1959343e+02		1.8442244e+03		1.6136875e+03		1.6483036e+02		1.4488571e+03
5.4500000e+02		5.5500000e+02		5.5000000e+02		1.8321100e+03		8.1382319e+02		1.8320577e+03		1.6041102e+03		1.5214041e+02		1.4519698e+03
5.5500000e+02		5.6500000e+02		5.6000000e+02		1.7958500e+03		7.9902008e+02		1.7987427e+03		1.5765312e+03		1.3903595e+02		1.4374953e+03
5.6500000e+02		5.7500000e+02		5.7000000e+02		1.8131600e+03		8.0003443e+02		1.8033487e+03		1.5800100e+03		1.2966230e+02		1.4503477e+03
5.7500000e+02		5.8500000e+02		5.8000000e+02		1.8367200e+03		8.1837749e+02		1.8437296e+03		1.6176076e+03		1.2377091e+02		1.4938366e+03
5.8500000e+02		5.9500000e+02		5.9000000e+02		1.7921200e+03		7.8192898e+02		1.7694031e+03		1.5467985e+03		1.1027430e+02		1.4365242e+03
5.9500000e+02		6.0500000e+02		6.0000000e+02		1.7622500e+03		7.8134298e+02		1.7635148e+03		1.5467329e+03		1.0312205e+02		1.4436109e+03
6.0500000e+02		6.1500000e+02		6.1000000e+02		1.7235900e+03		7.7715776e+02		1.7516424e+03		1.5394552e+03		9.6058651e+01		1.4433965e+03
6.1500000e+02		6.2500000e+02		6.2000000e+02		1.6957900e+03		7.7280594e+02		1.7421059e+03		1.5317664e+03		8.9498648e+01		1.4422677e+03
6.2500000e+02		6.3500000e+02		6.3000000e+02		1.6531000e+03		7.5504332e+02		1.7039421e+03		1.4974045e+03		8.1978461e+01		1.4154261e+03
6.3500000e+02		6.4500000e+02		6.4000000e+02		1.6272700e+03		7.5250338e+02		1.6974174e+03		1.4931381e+03		7.6720132e+01		1.4164180e+03
6.4500000e+02		6.5500000e+02		6.5000000e+02		1.5563700e+03		5.5327562e+02		1.2678703e+03		1.0984169e+03		5.2581075e+01		1.0458359e+03
6.5500000e+02		6.6500000e+02		6.6000000e+02		1.5418200e+03		5.5197988e+02		1.2610956e+03		1.0963248e+03		4.9352807e+01		1.0469720e+03
6.6500000e+02		6.7500000e+02		6.7000000e+02		1.5514400e+03		4.8694300e+02		1.1187776e+03		9.6755394e+02		4.0931086e+01		9.2662286e+02
6.7500000e+02		6.8500000e+02		6.8000000e+02		1.5257000e+03		4.7656182e+02		1.0955379e+03		9.4728466e+02		3.7743803e+01		9.0954086e+02
6.8500000e+02		6.9500000e+02		6.9000000e+02		1.4719000e+03		2.9953465e+02		7.0565009e+02		5.9559339e+02		2.2468652e+01		5.7312474e+02
6.9500000e+02		7.0500000e+02		7.0000000e+02		1.4593900e+03		4.5833920e+02		1.0606665e+03		9.1168113e+02		3.2302843e+01		8.7937828e+02
7.0500000e+02		7.1500000e+02		7.1000000e+02		1.4024500e+03		4.4899433e+02		1.0331179e+03		8.9336331e+02		2.9898704e+01		8.6346461e+02
7.1500000e+02		7.2500000e+02		7.2000000e+02		1.3608900e+03		4.3361638e+02		1.0077934e+03		8.6301156e+02		2.7286267e+01		8.3572530e+02
7.2500000e+02		7.3500000e+02		7.3000000e+02		1.3368000e+03		3.0922985e+02		7.4676233e+02		6.1559859e+02		1.8494501e+01		5.9710409e+02
7.3500000e+02		7.4500000e+02		7.4000000e+02		1.2918800e+03		3.6683242e+02		8.5151222e+02		7.3046488e+02		2.0684815e+01		7.0978007e+02
7.4500000e+02		7.5500000e+02		7.5000000e+02		1.2746500e+03		3.8502437e+02		8.8785977e+02		7.6686681e+02		2.0568331e+01		7.4629848e+02
7.5500000e+02		7.6500000e+02		7.6000000e+02		1.2421900e+03		5.2875811e-02		1.9144343e-01		1.0502954e-01		4.6675978e-03		1.0036194e-01
7.6500000e+02		7.7500000e+02		7.7000000e+02		1.1976600e+03		1.2934212e+02		3.1286547e+02		2.5769673e+02		6.3834506e+00		2.5131327e+02
7.7500000e+02		7.8500000e+02		7.8000000e+02		1.1848600e+03		3.0031883e+02		6.9874904e+02		5.9851522e+02		1.3719647e+01		5.8479557e+02
7.8500000e+02		7.9500000e+02		7.9000000e+02		1.1597900e+03		2.9997756e+02		7.0291189e+02		5.9794119e+02		1.3018318e+01		5.8492287e+02
7.9500000e+02		8.0500000e+02		8.0000000e+02		1.1303900e+03		4.1348667e+02		9.5002626e+02		8.2433559e+02		1.7050642e+01		8.0728495e+02
8.0500000e+02		8.1500000e+02		8.1000000e+02		1.0894400e+03		4.9885998e+02		1.1386701e+03		9.9467990e+02		1.9651195e+01		9.7502871e+02
8.1500000e+02		8.2500000e+02		8.2000000e+02		1.0640400e+03		5.0497736e+02		1.1462503e+03		1.0070203e+03		1.8968557e+01		9.8805171e+02
8.2500000e+02		8.3500000e+02		8.3000000e+02		1.0320600e+03		4.8721675e+02		1.1072213e+03		9.7173812e+02		1.7423252e+01		9.5431487e+02
8.3500000e+02		8.4500000e+02		8.4000000e+02		1.0032100e+03		4.7243655e+02		1.0742664e+03		9.4238294e+02		1.6096676e+01		9.2628627e+02
8.4500000e+02		8.5500000e+02		8.5000000e+02		9.5867600e+02		4.5759517e+02		1.0383675e+03		9.1288888e+02		1.4876801e+01		8.9801208e+02
