Left Bin Edge (nm)	Right Bin Edge (nm)	Bin Center (nm)		Top of Atm Intensity (erg/s/nm/cm2)		Total Surface Flux (erg/s/nm/cm2)		Total Intensity at BOA (erg/s/nm/cm2)		Total Surface Intensity (erg/s/nm/cm2)		Total Surface Diffuse Intensity (erg/s/nm/cm2)		Total Surface Direct Intensity (erg/s/nm/cm2)
1.3000000e+02		1.3500000e+02		1.3250000e+02		3.6963376e-01		1.1121008e-148		1.4689239e-149		1.9262151e-148		1.9262151e-148		0.0000000e+00
1.3500000e+02		1.4000000e+02		1.3750000e+02		1.4654759e-01		6.5988225e-143		9.8005411e-144		1.1429496e-142		1.1429496e-142		0.0000000e+00
1.4000000e+02		1.4500000e+02		1.4250000e+02		1.7428293e-01		1.5306376e-137		2.5351998e-138		2.6511422e-137		2.6511422e-137		0.0000000e+00
1.4500000e+02		1.5000000e+02		1.4750000e+02		2.1396515e-01		1.5273527e-132		2.8003783e-133		2.6454525e-132		2.6454525e-132		0.0000000e+00
1.5000000e+02		1.5500000e+02		1.5250000e+02		4.2836031e-01		7.1249976e-128		1.4365459e-128		1.2340858e-127		1.2340858e-127		0.0000000e+00
1.5500000e+02		1.6000000e+02		1.5750000e+02		4.9217228e-01		1.6708400e-123		3.6823082e-124		2.8939797e-123		2.8939797e-123		0.0000000e+00
1.6000000e+02		1.6500000e+02		1.6250000e+02		7.2942091e-01		2.0990910e-119		5.0291913e-120		3.6357322e-119		3.6357322e-119		0.0000000e+00
1.6500000e+02		1.7000000e+02		1.6750000e+02		8.4832240e-01		1.4942064e-115		3.8726214e-116		2.5880414e-115		2.5880414e-115		0.0000000e+00
1.7000000e+02		1.7500000e+02		1.7250000e+02		1.0776285e+00		6.3326307e-112		1.7674286e-112		1.0968438e-111		1.0968438e-111		0.0000000e+00
1.7540000e+02		1.7700000e+02		1.7620000e+02		1.5915361e+00		2.2491039e-109		6.6131004e-110		3.8955623e-109		3.8955623e-109		0.0000000e+00
1.7700000e+02		1.7860000e+02		1.7780000e+02		1.9540231e+00		2.6407362e-108		7.9364416e-109		4.5738893e-108		4.5738893e-108		0.0000000e+00
1.7860000e+02		1.8020000e+02		1.7940000e+02		2.0728792e+00		2.9660912e-107		9.1083290e-108		5.1374206e-107		5.1374206e-107		0.0000000e+00
1.8020000e+02		1.8180000e+02		1.8100000e+02		2.7568296e+00		3.1907913e-106		1.0008928e-106		5.5266127e-106		5.5266127e-106		0.0000000e+00
1.8180000e+02		1.8350000e+02		1.8265000e+02		2.9124406e+00		3.5378419e-105		1.1342356e-105		6.1277220e-105		6.1277220e-105		0.0000000e+00
1.8350000e+02		1.8520000e+02		1.8435000e+02		2.6619021e+00		4.0316398e-104		1.3220111e-104		6.9830049e-104		6.9830049e-104		0.0000000e+00
1.8520000e+02		1.8690000e+02		1.8605000e+02		3.1028862e+00		4.3923725e-103		1.4741686e-103		7.6078124e-103		7.6078124e-103		0.0000000e+00
1.8690000e+02		1.8870000e+02		1.8780000e+02		3.7438675e+00		4.9041046e-102		1.6885406e-102		8.4941583e-102		8.4941583e-102		0.0000000e+00
1.8870000e+02		1.9050000e+02		1.8960000e+02		4.2618352e+00		5.5953500e-101		1.9871265e-101		9.6914306e-101		9.6914306e-101		0.0000000e+00
1.9050000e+02		1.9230000e+02		1.9140000e+02		4.8305735e+00		6.0919480e-100		2.2476968e-100		1.0551563e-99		1.0551563e-99		0.0000000e+00
1.9230000e+02		1.9420000e+02		1.9325000e+02		4.4512754e+00		6.7566106e-99		2.6211957e-99		1.1702793e-98		1.1702793e-98		0.0000000e+00
1.9420000e+02		1.9610000e+02		1.9515000e+02		6.0922398e+00		7.6200607e-98		3.1136713e-98		1.3198332e-97		1.3198332e-97		1.4647827e-284
1.9610000e+02		1.9800000e+02		1.9705000e+02		6.5599541e+00		8.2010743e-97		3.4989875e-97		1.4204677e-96		1.4204677e-96		1.1133843e-211
1.9800000e+02		2.0000000e+02		1.9900000e+02		6.5583291e+00		5.7384258e-48		1.8284172e-40		9.9392451e-48		9.9392451e-48		1.7617836e-63
2.0000000e+02		2.0200000e+02		2.0100000e+02		7.3409762e+00		6.2467205e-06		3.1375134e-05		1.0819637e-05		1.0819637e-05		7.5686394e-17
2.0200000e+02		2.0410000e+02		2.0305000e+02		7.7601159e+00		2.1693352e-02		8.2464700e-02		3.7573988e-02		3.7573988e-02		5.2629327e-14
2.0410000e+02		2.0620000e+02		2.0515000e+02		8.6453336e+00		3.1950428e-01		1.1459263e+00		5.5339765e-01		5.5339765e-01		5.7709684e-13
2.0620000e+02		2.0830000e+02		2.0725000e+02		9.1279532e+00		3.5684477e-01		1.2602205e+00		6.1807328e-01		6.1807328e-01		2.4413486e-12
2.0830000e+02		2.1050000e+02		2.0940000e+02		1.2823615e+01		5.2157418e-01		1.8139631e+00		9.0339297e-01		9.0339297e-01		1.3032825e-11
2.1050000e+02		2.1280000e+02		2.1165000e+02		1.7348607e+01		7.5652779e-01		2.5902383e+00		1.3103446e+00		1.3103446e+00		6.6048959e-11
2.1280000e+02		2.1510000e+02		2.1395000e+02		1.8952975e+01		8.7380618e-01		2.9458575e+00		1.5134767e+00		1.5134767e+00		2.5604781e-10
2.1510000e+02		2.1740000e+02		2.1625000e+02		1.7529032e+01		8.4493294e-01		2.8062127e+00		1.4634668e+00		1.4634668e+00		7.7636631e-10
2.1740000e+02		2.2000000e+02		2.1870000e+02		2.2910097e+01		1.1675800e+00		3.8183509e+00		2.0223079e+00		2.0223079e+00		3.3296221e-09
2.2000000e+02		2.2220000e+02		2.2110000e+02		2.3032250e+01		1.2234183e+00		3.9428966e+00		2.1190227e+00		2.1190226e+00		9.9610027e-09
2.2220000e+02		2.2470000e+02		2.2345000e+02		3.1931731e+01		1.7676119e+00		5.6184823e+00		3.0615936e+00		3.0615935e+00		3.7628111e-08
2.2470000e+02		2.2730000e+02		2.2600000e+02		2.5090847e+01		1.4474159e+00		4.5344578e+00		2.5069979e+00		2.5069978e+00		8.2060012e-08
2.2730000e+02		2.2990000e+02		2.2860000e+02		2.5725569e+01		1.5437279e+00		4.7676850e+00		2.6738151e+00		2.6738149e+00		2.2290852e-07
2.2990000e+02		2.3260000e+02		2.3125000e+02		2.8521286e+01		1.7758985e+00		5.4084673e+00		3.0759466e+00		3.0759459e+00		6.2549399e-07
2.3260000e+02		2.3530000e+02		2.3395000e+02		2.5875795e+01		1.6695023e+00		5.0150841e+00		2.8916630e+00		2.8916616e+00		1.3750374e-06
2.3530000e+02		2.3810000e+02		2.3670000e+02		3.0231814e+01		2.0196722e+00		5.9859061e+00		3.4981753e+00		3.4981716e+00		3.7319890e-06
2.3810000e+02		2.4100000e+02		2.3955000e+02		2.6396809e+01		1.8268979e+00		5.3425226e+00		3.1642811e+00		3.1642737e+00		7.3728014e-06
2.4100000e+02		2.4390000e+02		2.4245000e+02		3.6642942e+01		2.6289675e+00		7.5881580e+00		4.5535082e+00		4.5534859e+00		2.2252643e-05
2.4390000e+02		2.4690000e+02		2.4540000e+02		3.1704512e+01		2.3599350e+00		6.7253062e+00		4.0875327e+00		4.0874925e+00		4.0291566e-05
2.4690000e+02		2.5000000e+02		2.4845000e+02		2.9425010e+01		2.2773870e+00		6.4086209e+00		3.9445602e+00		3.9444839e+00		7.6348149e-05
2.5000000e+02		2.5320000e+02		2.5160000e+02		2.8803114e+01		2.3250406e+00		6.4616517e+00		4.0271085e+00		4.0269595e+00		1.4890380e-04
2.5320000e+02		2.5640000e+02		2.5480000e+02		4.1450781e+01		3.4966162e+00		9.6008090e+00		6.0563722e+00		6.0559599e+00		4.1230502e-04
2.5640000e+02		2.5970000e+02		2.5805000e+02		7.7629987e+01		6.8674807e+00		1.8636688e+01		1.1895018e+01		1.1893579e+01		1.4388879e-03
2.5970000e+02		2.6320000e+02		2.6145000e+02		6.2218700e+01		5.7922319e+00		1.5536356e+01		1.0032724e+01		1.0030605e+01		2.1190163e-03
2.6320000e+02		2.6670000e+02		2.6495000e+02		1.5720744e+02		1.5448557e+01		4.0966802e+01		2.6758973e+01		2.6749362e+01		9.6107380e-03
2.6670000e+02		2.7030000e+02		2.6850000e+02		1.6644042e+02		1.7297678e+01		4.5369244e+01		2.9962829e+01		2.9945124e+01		1.7704918e-02
2.7030000e+02		2.7400000e+02		2.7215000e+02		1.4287382e+02		1.5718471e+01		4.0788695e+01		2.7228651e+01		2.7202820e+01		2.5830198e-02
2.7400000e+02		2.7780000e+02		2.7590000e+02		1.3298322e+02		1.5503318e+01		3.9814882e+01		2.6857883e+01		2.6817963e+01		3.9920622e-02
2.7780000e+02		2.8170000e+02		2.7975000e+02		9.0861797e+01		1.1205884e+01		2.8490890e+01		1.9415079e+01		1.9370901e+01		4.4177974e-02
2.8170000e+02		2.8570000e+02		2.8370000e+02		1.5868104e+02		2.0674327e+01		5.2057944e+01		3.5825324e+01		3.5703364e+01		1.2195997e-01
2.8570000e+02		2.8990000e+02		2.8780000e+02		2.2397626e+02		3.0777739e+01		7.6772964e+01		5.3344368e+01		5.3077454e+01		2.6691391e-01
2.8990000e+02		2.9410000e+02		2.9200000e+02		3.8742828e+02		5.5981048e+01		1.3839249e+02		9.7055563e+01		9.6357345e+01		6.9821749e-01
2.9410000e+02		2.9850000e+02		2.9630000e+02		3.5031753e+02		5.3089780e+01		1.3013030e+02		9.2079068e+01		9.1147009e+01		9.3205917e-01
2.9850000e+02		3.0300000e+02		3.0075000e+02		3.1117888e+02		4.9382617e+01		1.2006147e+02		8.5693940e+01		8.4494170e+01		1.1997708e+00
3.0300000e+02		3.0770000e+02		3.0535000e+02		4.1334796e+02		6.8613607e+01		1.6553410e+02		1.1914605e+02		1.1687849e+02		2.2675574e+00
3.0770000e+02		3.1250000e+02		3.1010000e+02		4.3791495e+02		7.5931044e+01		1.8186460e+02		1.3196612e+02		1.2860953e+02		3.3565911e+00
3.1250000e+02		3.1750000e+02		3.1500000e+02		4.7668852e+02		8.6263234e+01		2.0522270e+02		1.5008432e+02		1.4506835e+02		5.0159652e+00
3.1750000e+02		3.2250000e+02		3.2000000e+02		5.0859732e+02		9.5932888e+01		2.2682694e+02		1.6712545e+02		1.5992400e+02		7.2014461e+00
3.2250000e+02		3.2750000e+02		3.2500000e+02		5.8668515e+02		1.1511841e+02		2.7070868e+02		2.0085282e+02		1.8994114e+02		1.0911678e+01
3.2750000e+02		3.3250000e+02		3.3000000e+02		7.1039481e+02		1.4474295e+02		3.3874228e+02		2.5297719e+02		2.3599601e+02		1.6981177e+01
3.3250000e+02		3.3750000e+02		3.3500000e+02		6.4442258e+02		1.3611960e+02		3.1722853e+02		2.3836689e+02		2.1895404e+02		1.9412853e+01
3.3750000e+02		3.4250000e+02		3.4000000e+02		6.7087514e+02		1.4668335e+02		3.4061005e+02		2.5741502e+02		2.3239536e+02		2.5019666e+01
3.4250000e+02		3.4500000e+02		3.4375000e+02		6.4129544e+02		1.4376680e+02		3.3304292e+02		2.5273381e+02		2.2494940e+02		2.7784404e+01
3.4500000e+02		3.5500000e+02		3.5000000e+02		6.9688123e+02		1.6251294e+02		3.7521741e+02		2.8656363e+02		2.4862393e+02		3.7939701e+01
3.5500000e+02		3.6500000e+02		3.6000000e+02		6.7373475e+02		1.6674350e+02		3.8344176e+02		2.9561997e+02		2.4477627e+02		5.0843701e+01
3.6500000e+02		3.7500000e+02		3.7000000e+02		8.0678585e+02		2.1088056e+02		4.8367074e+02		3.7606678e+02		2.9537294e+02		8.0693840e+01
3.7500000e+02		3.8500000e+02		3.8000000e+02		7.3114779e+02		2.0093772e+02		4.6016697e+02		3.6054004e+02		2.6719629e+02		9.3343749e+01
3.8500000e+02		3.9500000e+02		3.9000000e+02		7.1297536e+02		2.0517552e+02		4.6955501e+02		3.7045449e+02		2.5789537e+02		1.1255912e+02
3.9500000e+02		4.0500000e+02		4.0000000e+02		1.0486559e+03		3.1458849e+02		7.1997490e+02		5.7156751e+02		3.7239352e+02		1.9917399e+02
4.0500000e+02		4.1500000e+02		4.1000000e+02		1.2120188e+03		3.7823627e+02		8.6592775e+02		6.9143425e+02		4.2041412e+02		2.7102013e+02
4.1500000e+02		4.2500000e+02		4.2000000e+02		1.2348241e+03		3.9929501e+02		9.1480962e+02		7.3428004e+02		4.1570620e+02		3.1857384e+02
4.2500000e+02		4.3500000e+02		4.3000000e+02		1.1361282e+03		3.7960654e+02		8.7050995e+02		7.0205626e+02		3.6946746e+02		3.3258880e+02
4.3500000e+02		4.4500000e+02		4.4000000e+02		1.3297494e+03		4.5662047e+02		1.0485667e+03		8.4907078e+02		4.1480244e+02		4.3426834e+02
4.4500000e+02		4.5500000e+02		4.5000000e+02		1.4649530e+03		5.1772664e+02		1.1900618e+03		9.6759992e+02		4.3861103e+02		5.2898890e+02
4.5500000e+02		4.6500000e+02		4.6000000e+02		1.5237133e+03		5.5303401e+02		1.2724799e+03		1.0385195e+03		4.3664028e+02		6.0187926e+02
4.6500000e+02		4.7500000e+02		4.7000000e+02		1.4923977e+03		5.5332058e+02		1.2749121e+03		1.0436980e+03		4.0687104e+02		6.3682696e+02
4.7500000e+02		4.8500000e+02		4.8000000e+02		1.5297683e+03		5.8042733e+02		1.3385763e+03		1.0993554e+03		3.9753764e+02		7.0181773e+02
4.8500000e+02		4.9500000e+02		4.9000000e+02		1.4205403e+03		5.4912719e+02		1.2679149e+03		1.0440708e+03		3.5024785e+02		6.9382299e+02
4.9500000e+02		5.0500000e+02		5.0000000e+02		1.4266869e+03		5.5951901e+02		1.2938335e+03		1.0676252e+03		3.3233756e+02		7.3528765e+02
5.0500000e+02		5.1500000e+02		5.1000000e+02		1.4001580e+03		5.5703078e+02		1.2897137e+03		1.0663763e+03		3.0824204e+02		7.5813431e+02
5.1500000e+02		5.2500000e+02		5.2000000e+02		1.3190863e+03		5.3615523e+02		1.2415294e+03		1.0295006e+03		2.7672751e+02		7.5277306e+02
5.2500000e+02		5.3500000e+02		5.3000000e+02		1.3758087e+03		5.6608762e+02		1.3122761e+03		1.0900225e+03		2.7247951e+02		8.1754300e+02
5.3500000e+02		5.4500000e+02		5.4000000e+02		1.3845270e+03		5.7559288e+02		1.3358352e+03		1.1111934e+03		2.5851435e+02		8.5267910e+02
5.4500000e+02		5.5500000e+02		5.5000000e+02		1.4003064e+03		5.8803456e+02		1.3660677e+03		1.1379190e+03		2.4660641e+02		8.9131256e+02
5.5500000e+02		5.6500000e+02		5.6000000e+02		1.3652491e+03		5.8329232e+02		1.3548828e+03		1.1311980e+03		2.2874284e+02		9.0245515e+02
5.6500000e+02		5.7500000e+02		5.7000000e+02		1.3559013e+03		5.7430990e+02		1.3381969e+03		1.1160894e+03		2.1027977e+02		9.0580964e+02
5.7500000e+02		5.8500000e+02		5.8000000e+02		1.3614154e+03		5.9081837e+02		1.3747837e+03		1.1502713e+03		2.0274954e+02		9.4752174e+02
5.8500000e+02		5.9500000e+02		5.9000000e+02		1.3166254e+03		5.3224617e+02		1.2524619e+03		1.0382046e+03		1.6992634e+02		8.6827831e+02
5.9500000e+02		6.0500000e+02		6.0000000e+02		1.3092118e+03		5.6294968e+02		1.3158853e+03		1.0997189e+03		1.6923299e+02		9.3048593e+02
6.0500000e+02		6.1500000e+02		6.1000000e+02		1.2895835e+03		5.7555476e+02		1.3406565e+03		1.1259268e+03		1.6278400e+02		9.6314275e+02
6.1500000e+02		6.2500000e+02		6.2000000e+02		1.2519294e+03		5.6251214e+02		1.3108909e+03		1.1019149e+03		1.4938135e+02		9.5253356e+02
6.2500000e+02		6.3500000e+02		6.3000000e+02		1.2408849e+03		5.5100274e+02		1.2877359e+03		1.0807714e+03		1.3725919e+02		9.4351222e+02
6.3500000e+02		6.4500000e+02		6.4000000e+02		1.2189410e+03		5.5065283e+02		1.2854703e+03		1.0813269e+03		1.2914475e+02		9.5218215e+02
6.4500000e+02		6.5500000e+02		6.5000000e+02		1.1925416e+03		4.9336431e+02		1.1668646e+03		9.7001861e+02		1.0801522e+02		8.6200339e+02
6.5500000e+02		6.6500000e+02		6.6000000e+02		1.1328481e+03		5.1055059e+02		1.1947689e+03		1.0047000e+03		1.0601870e+02		8.9868132e+02
6.6500000e+02		6.7500000e+02		6.7000000e+02		1.1536519e+03		5.3174897e+02		1.2417944e+03		1.0473669e+03		1.0427296e+02		9.4309391e+02
6.7500000e+02		6.8500000e+02		6.8000000e+02		1.1295455e+03		5.2312367e+02		1.2219503e+03		1.0312759e+03		9.6777007e+01		9.3449887e+02
6.8500000e+02		6.9500000e+02		6.9000000e+02		1.1109650e+03		4.5940915e+02		1.0907836e+03		9.0653310e+02		7.9412782e+01		8.2712031e+02
6.9500000e+02		7.0500000e+02		7.0000000e+02		1.0941731e+03		4.3515671e+02		1.0396700e+03		8.5935203e+02		7.0855608e+01		7.8849642e+02
7.0500000e+02		7.1500000e+02		7.1000000e+02		1.0647515e+03		4.8378640e+02		1.1356342e+03		9.5593221e+02		7.5245920e+01		8.8068629e+02
7.1500000e+02		7.2500000e+02		7.2000000e+02		1.0265317e+03		3.6680164e+02		8.9109269e+02		7.2538710e+02		5.3110247e+01		6.7227685e+02
7.2500000e+02		7.3500000e+02		7.3000000e+02		1.0059076e+03		2.0347541e+02		5.3897631e+02		4.0262263e+02		2.7977820e+01		3.7464481e+02
7.3500000e+02		7.4500000e+02		7.4000000e+02		9.7906154e+02		4.1880186e+02		9.9319716e+02		8.2910345e+02		5.4946569e+01		7.7415688e+02
7.4500000e+02		7.5500000e+02		7.5000000e+02		9.7082415e+02		4.6015331e+02		1.0766129e+03		9.1137004e+02		5.7766917e+01		8.5360312e+02
7.5500000e+02		7.6500000e+02		7.6000000e+02		9.4932481e+02		4.5195472e+02		1.0573127e+03		8.9558032e+02		5.3840248e+01		8.4174007e+02
7.6500000e+02		7.7500000e+02		7.7000000e+02		9.1637328e+02		4.3771856e+02		1.0240706e+03		8.6777844e+02		4.9506469e+01		8.1827197e+02
7.7500000e+02		7.8500000e+02		7.8000000e+02		8.9687537e+02		4.2221274e+02		9.9020807e+02		8.3742036e+02		4.5281741e+01		7.9213862e+02
7.8500000e+02		7.9500000e+02		7.9000000e+02		8.7402828e+02		3.3860159e+02		8.1635701e+02		6.7194379e+02		3.3997161e+01		6.3794663e+02
7.9500000e+02		8.0500000e+02		8.0000000e+02		8.6073642e+02		3.6929445e+02		8.7800613e+02		7.3309786e+02		3.5494628e+01		6.9760323e+02
8.0500000e+02		8.1500000e+02		8.1000000e+02		8.4764574e+02		3.3352795e+02		8.0301862e+02		6.6236408e+02		3.0328460e+01		6.3203562e+02
8.1500000e+02		8.2500000e+02		8.2000000e+02		8.2228204e+02		3.5944683e+02		8.5302086e+02		7.1404474e+02		3.1343953e+01		6.8270079e+02
8.2500000e+02		8.3500000e+02		8.3000000e+02		8.0606606e+02		3.4568169e+02		8.2283364e+02		6.8692774e+02		2.8672489e+01		6.5825525e+02
8.3500000e+02		8.4500000e+02		8.4000000e+02		7.8636165e+02		3.3434315e+02		7.9706640e+02		6.6459967e+02		2.6416448e+01		6.3818322e+02
8.4500000e+02		8.5500000e+02		8.5000000e+02		7.2980852e+02		3.2313513e+02		7.6623285e+02		6.4249143e+02		2.4426721e+01		6.1806470e+02
