Left Bin Edge (nm)	Right Bin Edge (nm)	Bin Center (nm)		Top of Atm Intensity (erg/s/nm/cm2)		Total Surface Flux (erg/s/nm/cm2)		Total Intensity at BOA (erg/s/nm/cm2)		Total Surface Flux(erg/s/nm/cm2)		Total Surface Direct Flux (erg/s/nm/cm2)		Total Surface Diffuse Flux (erg/s/nm/cm2)
1.3000000e+02		1.3500000e+02		1.3250000e+02		3.6963376e-01		1.1121009e-148		0.0000000e+00		1.1121009e-148
1.3500000e+02		1.4000000e+02		1.3750000e+02		1.4654759e-01		6.5988257e-143		0.0000000e+00		6.5988257e-143
1.4000000e+02		1.4500000e+02		1.4250000e+02		1.7428293e-01		1.5306381e-137		0.0000000e+00		1.5306381e-137
1.4500000e+02		1.5000000e+02		1.4750000e+02		2.1396515e-01		1.5273523e-132		0.0000000e+00		1.5273523e-132
1.5000000e+02		1.5500000e+02		1.5250000e+02		4.2836031e-01		7.1249928e-128		0.0000000e+00		7.1249928e-128
1.5500000e+02		1.6000000e+02		1.5750000e+02		4.9217228e-01		1.6708384e-123		0.0000000e+00		1.6708384e-123
1.6000000e+02		1.6500000e+02		1.6250000e+02		7.2942091e-01		2.0990885e-119		0.0000000e+00		2.0990885e-119
1.6500000e+02		1.7000000e+02		1.6750000e+02		8.4832240e-01		1.4942044e-115		0.0000000e+00		1.4942044e-115
1.7000000e+02		1.7500000e+02		1.7250000e+02		1.0776285e+00		6.3326205e-112		0.0000000e+00		6.3326205e-112
1.7540000e+02		1.7700000e+02		1.7620000e+02		1.5915361e+00		2.2490991e-109		0.0000000e+00		2.2490991e-109
1.7700000e+02		1.7860000e+02		1.7780000e+02		1.9540231e+00		2.6407291e-108		0.0000000e+00		2.6407291e-108
1.7860000e+02		1.8020000e+02		1.7940000e+02		2.0728792e+00		2.9660791e-107		0.0000000e+00		2.9660791e-107
1.8020000e+02		1.8180000e+02		1.8100000e+02		2.7568296e+00		3.1907662e-106		0.0000000e+00		3.1907662e-106
1.8180000e+02		1.8350000e+02		1.8265000e+02		2.9124406e+00		3.5377761e-105		0.0000000e+00		3.5377761e-105
1.8350000e+02		1.8520000e+02		1.8435000e+02		2.6619021e+00		4.0314681e-104		0.0000000e+00		4.0314681e-104
1.8520000e+02		1.8690000e+02		1.8605000e+02		3.1028862e+00		4.3919371e-103		0.0000000e+00		4.3919371e-103
1.8690000e+02		1.8870000e+02		1.8780000e+02		3.7438675e+00		4.9030059e-102		0.0000000e+00		4.9030059e-102
1.8870000e+02		1.9050000e+02		1.8960000e+02		4.2618352e+00		5.5923940e-101		0.0000000e+00		5.5923940e-101
1.9050000e+02		1.9230000e+02		1.9140000e+02		4.8305735e+00		6.0850268e-100		0.0000000e+00		6.0850268e-100
1.9230000e+02		1.9420000e+02		1.9325000e+02		4.4512754e+00		6.7411822e-99		1.0809069e-227		6.7411822e-99
1.9420000e+02		1.9610000e+02		1.9515000e+02		6.0922398e+00		7.5919181e-98		1.4936371e-142		7.5919181e-98
1.9610000e+02		1.9800000e+02		1.9705000e+02		6.5599541e+00		8.1605679e-97		4.2730989e-106		8.1605679e-97
1.9800000e+02		2.0000000e+02		1.9900000e+02		6.5583291e+00		9.0122900e-32		5.3745597e-32		3.6377303e-32
2.0000000e+02		2.0200000e+02		2.0100000e+02		7.3409762e+00		1.1791320e-08		1.1785712e-08		5.6086436e-12
2.0200000e+02		2.0410000e+02		2.0305000e+02		7.7601159e+00		3.1962900e-07		3.1953469e-07		9.4307314e-11
2.0410000e+02		2.0620000e+02		2.0515000e+02		8.6453336e+00		1.1171022e-06		1.1168253e-06		2.7696317e-10
2.0620000e+02		2.0830000e+02		2.0725000e+02		9.1279532e+00		2.3608496e-06		2.3603239e-06		5.2565293e-10
2.0830000e+02		2.1050000e+02		2.0940000e+02		1.2823615e+01		6.4651944e-06		6.4638984e-06		1.2960265e-09
2.1050000e+02		2.1280000e+02		2.1165000e+02		1.7348607e+01		1.6928311e-05		1.6925258e-05		3.0534476e-09
2.1280000e+02		2.1510000e+02		2.1395000e+02		1.8952975e+01		3.4836932e-05		3.4831264e-05		5.6683577e-09
2.1510000e+02		2.1740000e+02		2.1625000e+02		1.7529032e+01		5.8337304e-05		5.8328702e-05		8.6022923e-09
2.1740000e+02		2.2000000e+02		2.1870000e+02		2.2910097e+01		1.3811437e-04		1.3809595e-04		1.8418933e-08
2.2000000e+02		2.2220000e+02		2.2110000e+02		2.3032250e+01		2.3952036e-04		2.3949129e-04		2.9071322e-08
2.2220000e+02		2.2470000e+02		2.2345000e+02		3.1931731e+01		5.4813268e-04		5.4807178e-04		6.0898066e-08
2.2470000e+02		2.2730000e+02		2.2600000e+02		2.5090847e+01		7.1752570e-04		7.1745300e-04		7.2703391e-08
2.2730000e+02		2.2990000e+02		2.2860000e+02		2.5725569e+01		1.1974463e-03		1.1973354e-03		1.1088051e-07
2.2990000e+02		2.3260000e+02		2.3125000e+02		2.8521286e+01		2.1120440e-03		2.1118649e-03		1.7908644e-07
2.3260000e+02		2.3530000e+02		2.3395000e+02		2.5875795e+01		2.9826885e-03		2.9824565e-03		2.3203253e-07
2.3530000e+02		2.3810000e+02		2.3670000e+02		3.0231814e+01		5.3113307e-03		5.3109509e-03		3.7976841e-07
2.3810000e+02		2.4100000e+02		2.3955000e+02		2.6396809e+01		6.9757440e-03		6.9752855e-03		4.5855974e-07
2.4100000e+02		2.4390000e+02		2.4245000e+02		3.6642942e+01		1.4278490e-02		1.4277625e-02		8.6438043e-07
2.4390000e+02		2.4690000e+02		2.4540000e+02		3.1704512e+01		1.7871535e-02		1.7870537e-02		9.9792442e-07
2.4690000e+02		2.5000000e+02		2.4845000e+02		2.9425010e+01		2.3700087e-02		2.3698866e-02		1.2208588e-06
2.5000000e+02		2.5320000e+02		2.5160000e+02		2.8803114e+01		3.2746377e-02		3.2744821e-02		1.5563274e-06
2.5320000e+02		2.5640000e+02		2.5480000e+02		4.1450781e+01		6.5367932e-02		6.5365062e-02		2.8702425e-06
2.5640000e+02		2.5970000e+02		2.5805000e+02		7.7629987e+01		1.6711517e-01		1.6710838e-01		6.7869525e-06
2.5970000e+02		2.6320000e+02		2.6145000e+02		6.2218700e+01		1.8155738e-01		1.8155057e-01		6.8120834e-06
2.6320000e+02		2.6670000e+02		2.6495000e+02		1.5720744e+02		6.1461050e-01		6.1458920e-01		2.1304461e-05
2.6670000e+02		2.7030000e+02		2.6850000e+02		1.6644042e+02		8.5834185e-01		8.5831433e-01		2.7518149e-05
2.7030000e+02		2.7400000e+02		2.7215000e+02		1.4287382e+02		9.6055687e-01		9.6052838e-01		2.8485673e-05
2.7400000e+02		2.7780000e+02		2.7590000e+02		1.3298322e+02		1.1520703e+00		1.1520387e+00		3.1607175e-05
2.7780000e+02		2.8170000e+02		2.7975000e+02		9.0861797e+01		1.0017852e+00		1.0017597e+00		2.5437803e-05
2.8170000e+02		2.8570000e+02		2.8370000e+02		1.5868104e+02		2.1996389e+00		2.1995872e+00		5.1719693e-05
2.8570000e+02		2.8990000e+02		2.8780000e+02		2.2397626e+02		3.7222332e+00		3.7221511e+00		8.2127116e-05
2.8990000e+02		2.9410000e+02		2.9200000e+02		3.8742828e+02		5.8100311e+00		5.8098981e+00		1.3293466e-04
2.9410000e+02		2.9850000e+02		2.9630000e+02		3.5031753e+02		7.4129528e+00		7.4128031e+00		1.4965041e-04
2.9850000e+02		3.0300000e+02		3.0075000e+02		3.1117888e+02		8.2229551e+00		8.2228028e+00		1.5224634e-04
3.0300000e+02		3.0770000e+02		3.0535000e+02		4.1334796e+02		1.3451027e+01		1.3450798e+01		2.2854905e-04
3.0770000e+02		3.1250000e+02		3.1010000e+02		4.3791495e+02		1.6493865e+01		1.6493602e+01		2.6301294e-04
3.1250000e+02		3.1750000e+02		3.1500000e+02		4.7668852e+02		1.6788131e+01		1.6787855e+01		2.7572261e-04
3.1750000e+02		3.2250000e+02		3.2000000e+02		5.0859732e+02		2.1836469e+01		2.1836141e+01		3.2813293e-04
3.2250000e+02		3.2750000e+02		3.2500000e+02		5.8668515e+02		2.9111205e+01		2.9110796e+01		4.0840597e-04
3.2750000e+02		3.3250000e+02		3.3000000e+02		7.1039481e+02		3.3835074e+01		3.3834589e+01		4.8416761e-04
3.3250000e+02		3.3750000e+02		3.3500000e+02		6.4442258e+02		4.7506715e+01		4.7506174e+01		5.4124421e-04
3.3750000e+02		3.4250000e+02		3.4000000e+02		6.7087514e+02		6.1020342e+01		6.1019729e+01		6.1302818e-04
3.4250000e+02		3.4500000e+02		3.4375000e+02		6.4129544e+02		6.1595058e+01		6.1594461e+01		5.9764247e-04
3.4500000e+02		3.5500000e+02		3.5000000e+02		6.9688123e+02		7.8535275e+01		7.8534591e+01		6.8383125e-04
3.5500000e+02		3.6500000e+02		3.6000000e+02		6.7373475e+02		9.2541453e+01		9.2540759e+01		6.9403097e-04
3.6500000e+02		3.7500000e+02		3.7000000e+02		8.0678585e+02		1.2757695e+02		1.2757610e+02		8.4908822e-04
3.7500000e+02		3.8500000e+02		3.8000000e+02		7.3114779e+02		1.3062244e+02		1.3062166e+02		7.7502742e-04
3.8500000e+02		3.9500000e+02		3.9000000e+02		7.1297536e+02		1.4164456e+02		1.4164381e+02		7.5231575e-04
3.9500000e+02		4.0500000e+02		4.0000000e+02		1.0486559e+03		2.2850983e+02		2.2850874e+02		1.0908883e-03
4.0500000e+02		4.1500000e+02		4.1000000e+02		1.2120188e+03		2.8656776e+02		2.8656652e+02		1.2328925e-03
4.1500000e+02		4.2500000e+02		4.2000000e+02		1.2348241e+03		3.1360234e+02		3.1360112e+02		1.2201814e-03
4.2500000e+02		4.3500000e+02		4.3000000e+02		1.1361282e+03		3.0735411e+02		3.0735302e+02		1.0845091e-03
4.3500000e+02		4.4500000e+02		4.4000000e+02		1.3297494e+03		3.7995782e+02		3.7995660e+02		1.2217684e-03
4.4500000e+02		4.5500000e+02		4.5000000e+02		1.4649530e+03		4.4015577e+02		4.4015448e+02		1.2889817e-03
4.5500000e+02		4.6500000e+02		4.6000000e+02		1.5237133e+03		4.7882573e+02		4.7882445e+02		1.2795216e-03
4.6500000e+02		4.7500000e+02		4.7000000e+02		1.4923977e+03		4.8744327e+02		4.8744207e+02		1.1951430e-03
4.7500000e+02		4.8500000e+02		4.8000000e+02		1.5297683e+03		5.1807898e+02		5.1807782e+02		1.1631393e-03
4.8500000e+02		4.9500000e+02		4.9000000e+02		1.4205403e+03		4.9638886e+02		4.9638783e+02		1.0256941e-03
4.9500000e+02		5.0500000e+02		5.0000000e+02		1.4266869e+03		5.1211065e+02		5.1210967e+02		9.7958506e-04
5.0500000e+02		5.1500000e+02		5.1000000e+02		1.4001580e+03		5.1514842e+02		5.1514751e+02		9.1270139e-04
5.1500000e+02		5.2500000e+02		5.2000000e+02		1.3190863e+03		4.9824087e+02		4.9824006e+02		8.0784622e-04
5.2500000e+02		5.3500000e+02		5.3000000e+02		1.3758087e+03		5.3027968e+02		5.3027888e+02		7.9839532e-04
5.3500000e+02		5.4500000e+02		5.4000000e+02		1.3845270e+03		5.4326802e+02		5.4326725e+02		7.6227132e-04
5.4500000e+02		5.5500000e+02		5.5000000e+02		1.4003064e+03		5.5859510e+02		5.5859437e+02		7.3093638e-04
5.5500000e+02		5.6500000e+02		5.6000000e+02		1.3652491e+03		5.5499528e+02		5.5499461e+02		6.6602643e-04
5.6500000e+02		5.7500000e+02		5.7000000e+02		1.3559013e+03		5.5411897e+02		5.5411833e+02		6.4812861e-04
5.7500000e+02		5.8500000e+02		5.8000000e+02		1.3614154e+03		5.6788498e+02		5.6788438e+02		5.9733440e-04
5.8500000e+02		5.9500000e+02		5.9000000e+02		1.3166254e+03		5.3460267e+02		5.3460202e+02		6.4515051e-04
5.9500000e+02		6.0500000e+02		6.0000000e+02		1.3092118e+03		5.5186175e+02		5.5186121e+02		5.4718529e-04
6.0500000e+02		6.1500000e+02		6.1000000e+02		1.2895835e+03		5.5723763e+02		5.5723716e+02		4.7283755e-04
6.1500000e+02		6.2500000e+02		6.2000000e+02		1.2519294e+03		5.4600977e+02		5.4600933e+02		4.3406027e-04
6.2500000e+02		6.3500000e+02		6.3000000e+02		1.2408849e+03		5.4101570e+02		5.4101526e+02		4.3111335e-04
6.3500000e+02		6.4500000e+02		6.4000000e+02		1.2189410e+03		5.3866862e+02		5.3866823e+02		3.8723347e-04
6.4500000e+02		6.5500000e+02		6.5000000e+02		1.1925416e+03		5.0694596e+02		5.0694549e+02		4.7798173e-04
6.5500000e+02		6.6500000e+02		6.6000000e+02		1.1328481e+03		5.0449747e+02		5.0449713e+02		3.4016853e-04
6.6500000e+02		6.7500000e+02		6.7000000e+02		1.1536519e+03		5.2153700e+02		5.2153669e+02		3.0629430e-04
6.7500000e+02		6.8500000e+02		6.8000000e+02		1.1295455e+03		5.1370229e+02		5.1370200e+02		2.8388236e-04
6.8500000e+02		6.9500000e+02		6.9000000e+02		1.1109650e+03		4.7929722e+02		4.7929681e+02		4.1107402e-04
6.9500000e+02		7.0500000e+02		7.0000000e+02		1.0941731e+03		4.6442255e+02		4.6442211e+02		4.4196096e-04
7.0500000e+02		7.1500000e+02		7.1000000e+02		1.0647515e+03		4.8417793e+02		4.8417766e+02		2.6789656e-04
7.1500000e+02		7.2500000e+02		7.2000000e+02		1.0265317e+03		4.1536586e+02		4.1536535e+02		5.0955623e-04
7.2500000e+02		7.3500000e+02		7.3000000e+02		1.0059076e+03		3.0694470e+02		3.0694383e+02		8.7175666e-04
7.3500000e+02		7.4500000e+02		7.4000000e+02		9.7906154e+02		4.3530112e+02		4.3530082e+02		2.9761486e-04
7.4500000e+02		7.5500000e+02		7.5000000e+02		9.7082415e+02		4.5516457e+02		4.5516440e+02		1.7105764e-04
7.5500000e+02		7.6500000e+02		7.6000000e+02		9.4932481e+02		4.4695785e+02		4.4695770e+02		1.5705013e-04
7.6500000e+02		7.7500000e+02		7.7000000e+02		9.1637328e+02		4.3296740e+02		4.3296725e+02		1.4324773e-04
7.7500000e+02		7.8500000e+02		7.8000000e+02		8.9687537e+02		4.2144102e+02		4.2144087e+02		1.5286812e-04
7.8500000e+02		7.9500000e+02		7.9000000e+02		8.7402828e+02		3.7335788e+02		3.7335754e+02		3.4156064e-04
7.9500000e+02		8.0500000e+02		8.0000000e+02		8.6073642e+02		3.8744459e+02		3.8744435e+02		2.3721378e-04
8.0500000e+02		8.1500000e+02		8.1000000e+02		8.4764574e+02		3.6597241e+02		3.6597209e+02		3.1227789e-04
8.1500000e+02		8.2500000e+02		8.2000000e+02		8.2228204e+02		3.7462421e+02		3.7462401e+02		2.0318667e-04
8.2500000e+02		8.3500000e+02		8.3000000e+02		8.0606606e+02		3.6421074e+02		3.6421052e+02		2.1500709e-04
8.3500000e+02		8.4500000e+02		8.4000000e+02		7.8636165e+02		3.5420454e+02		3.5420432e+02		2.1548111e-04
8.4500000e+02		8.5500000e+02		8.5000000e+02		7.2980852e+02		3.3580847e+02		3.3580831e+02		1.6280560e-04
