Left Bin Edge (nm)	Right Bin Edge (nm)	Bin Center (nm)		Top of Atm Intensity (erg/s/nm/cm2)		Total Surface Flux (erg/s/nm/cm2)		Total Intensity at BOA (erg/s/nm/cm2)		Total Surface Intensity (erg/s/nm/cm2)		Total Surface Diffuse Intensity (erg/s/nm/cm2)		Total Surface Direct Intensity (erg/s/nm/cm2)
1.3000000e+02		1.3500000e+02		1.3250000e+02		3.6963376e-01		8.6596617e-149		1.4551378e-149		1.4998974e-148		1.4998974e-148		0.0000000e+00
1.3500000e+02		1.4000000e+02		1.3750000e+02		1.4654759e-01		5.1675524e-143		9.7428249e-144		8.9504632e-143		8.9504632e-143		0.0000000e+00
1.4000000e+02		1.4500000e+02		1.4250000e+02		1.7428293e-01		1.2050780e-137		2.5236025e-138		2.0872563e-137		2.0872563e-137		0.0000000e+00
1.4500000e+02		1.5000000e+02		1.4750000e+02		2.1396515e-01		1.2086158e-132		2.7826602e-133		2.0933839e-132		2.0933839e-132		0.0000000e+00
1.5000000e+02		1.5500000e+02		1.5250000e+02		4.2836031e-01		5.6652815e-128		1.4255047e-128		9.8125554e-128		9.8125554e-128		0.0000000e+00
1.5500000e+02		1.6000000e+02		1.5750000e+02		4.9217228e-01		1.3345965e-123		3.6502982e-124		2.3115890e-123		2.3115890e-123		0.0000000e+00
1.6000000e+02		1.6500000e+02		1.6250000e+02		7.2942091e-01		1.6839327e-119		4.9808342e-120		2.9166569e-119		2.9166569e-119		0.0000000e+00
1.6500000e+02		1.7000000e+02		1.6750000e+02		8.4832240e-01		1.2036105e-115		3.8339313e-116		2.0847146e-115		2.0847146e-115		0.0000000e+00
1.7000000e+02		1.7500000e+02		1.7250000e+02		1.0776285e+00		5.1209009e-112		1.7507288e-112		8.8696606e-112		8.8696606e-112		0.0000000e+00
1.7540000e+02		1.7700000e+02		1.7620000e+02		1.5915361e+00		1.8237084e-109		6.5600967e-110		3.1587556e-109		3.1587556e-109		0.0000000e+00
1.7700000e+02		1.7860000e+02		1.7780000e+02		1.9540231e+00		2.1436745e-108		7.8845965e-109		3.7129531e-108		3.7129531e-108		0.0000000e+00
1.7860000e+02		1.8020000e+02		1.7940000e+02		2.0728792e+00		2.4102959e-107		9.0828405e-108		4.1747549e-107		4.1747549e-107		0.0000000e+00
1.8020000e+02		1.8180000e+02		1.8100000e+02		2.7568296e+00		2.5950728e-106		1.0078646e-106		4.4947979e-106		4.4947979e-106		0.0000000e+00
1.8180000e+02		1.8350000e+02		1.8265000e+02		2.9124406e+00		2.8783421e-105		1.1709033e-105		4.9854348e-105		4.9854348e-105		0.0000000e+00
1.8350000e+02		1.8520000e+02		1.8435000e+02		2.6619021e+00		3.2782970e-104		1.4305298e-104		5.6781769e-104		5.6781769e-104		0.0000000e+00
1.8520000e+02		1.8690000e+02		1.8605000e+02		3.1028862e+00		3.5617210e-103		1.7435988e-103		6.1690817e-103		6.1690817e-103		0.0000000e+00
1.8690000e+02		1.8870000e+02		1.8780000e+02		3.7438675e+00		-1.6704779e-52		nan		-2.8933527e-52		-2.8933527e-52		0.0000000e+00
1.8870000e+02		1.9050000e+02		1.8960000e+02		4.2618352e+00		5.0421871e-25		2.0089097e-20		8.7333242e-25		8.7333242e-25		0.0000000e+00
1.9050000e+02		1.9230000e+02		1.9140000e+02		4.8305735e+00		2.5560222e-12		7.3156445e-10		4.4271602e-12		4.4271602e-12		0.0000000e+00
1.9230000e+02		1.9420000e+02		1.9325000e+02		4.4512754e+00		1.3571145e-06		4.2796078e-05		2.3505913e-06		2.3505913e-06		2.1618139e-227
1.9420000e+02		1.9610000e+02		1.9515000e+02		6.0922398e+00		3.9522457e-04		5.3730668e-03		6.8454904e-04		6.8454904e-04		2.9872742e-142
1.9610000e+02		1.9800000e+02		1.9705000e+02		6.5599541e+00		4.2314601e-03		4.0889494e-02		7.3291039e-03		7.3291039e-03		8.5461978e-106
1.9800000e+02		2.0000000e+02		1.9900000e+02		6.5583291e+00		4.5176675e-01		1.9474124e+00		7.8248297e-01		7.8248297e-01		1.0749119e-31
2.0000000e+02		2.0200000e+02		2.0100000e+02		7.3409762e+00		2.1290029e+00		7.3711553e+00		3.6875411e+00		3.6875411e+00		2.3571424e-08
2.0200000e+02		2.0410000e+02		2.0305000e+02		7.7601159e+00		2.4442324e+00		8.4275974e+00		4.2335347e+00		4.2335341e+00		6.3906939e-07
2.0410000e+02		2.0620000e+02		2.0515000e+02		8.6453336e+00		2.8026783e+00		9.6494378e+00		4.8543815e+00		4.8543793e+00		2.2336505e-06
2.0620000e+02		2.0830000e+02		2.0725000e+02		9.1279532e+00		3.0111343e+00		1.0357961e+01		5.2154381e+00		5.2154334e+00		4.7206478e-06
2.0830000e+02		2.1050000e+02		2.0940000e+02		1.2823615e+01		4.3014953e+00		1.4784047e+01		7.4504102e+00		7.4503972e+00		1.2927797e-05
2.1050000e+02		2.1280000e+02		2.1165000e+02		1.7348607e+01		5.9159475e+00		2.0315778e+01		1.0246726e+01		1.0246692e+01		3.3850516e-05
2.1280000e+02		2.1510000e+02		2.1395000e+02		1.8952975e+01		6.5655527e+00		2.2528413e+01		1.1371880e+01		1.1371810e+01		6.9662528e-05
2.1510000e+02		2.1740000e+02		2.1625000e+02		1.7529032e+01		6.1622266e+00		2.1128504e+01		1.0673305e+01		1.0673189e+01		1.1665740e-04
2.1740000e+02		2.2000000e+02		2.1870000e+02		2.2910097e+01		8.1729005e+00		2.8001393e+01		1.4155916e+01		1.4155640e+01		2.7619190e-04
2.2000000e+02		2.2220000e+02		2.2110000e+02		2.3032250e+01		8.3274495e+00		2.8511147e+01		1.4423630e+01		1.4423151e+01		4.7898257e-04
2.2220000e+02		2.2470000e+02		2.2345000e+02		3.1931731e+01		1.1687916e+01		3.9991163e+01		2.0244211e+01		2.0243115e+01		1.0961436e-03
2.2470000e+02		2.2730000e+02		2.2600000e+02		2.5090847e+01		9.2993054e+00		3.1797829e+01		1.6107062e+01		1.6105627e+01		1.4349060e-03
2.2730000e+02		2.2990000e+02		2.2860000e+02		2.5725569e+01		9.6484645e+00		3.2971534e+01		1.6711952e+01		1.6709557e+01		2.3946708e-03
2.2990000e+02		2.3260000e+02		2.3125000e+02		2.8521286e+01		1.0818421e+01		3.6948175e+01		1.8738621e+01		1.8734397e+01		4.2237298e-03
2.3260000e+02		2.3530000e+02		2.3395000e+02		2.5875795e+01		9.9208058e+00		3.3864018e+01		1.7184139e+01		1.7178174e+01		5.9649130e-03
2.3530000e+02		2.3810000e+02		2.3670000e+02		3.0231814e+01		1.1709607e+01		3.9949464e+01		2.0283057e+01		2.0272435e+01		1.0621902e-02
2.3810000e+02		2.4100000e+02		2.3955000e+02		2.6396809e+01		1.0325368e+01		3.5209746e+01		1.7885931e+01		1.7871981e+01		1.3950571e-02
2.4100000e+02		2.4390000e+02		2.4245000e+02		3.6642942e+01		1.4467818e+01		4.9313467e+01		2.5062821e+01		2.5034266e+01		2.8555250e-02
2.4390000e+02		2.4690000e+02		2.4540000e+02		3.1704512e+01		1.2629478e+01		4.3029917e+01		2.1879686e+01		2.1843945e+01		3.5741075e-02
2.4690000e+02		2.5000000e+02		2.4845000e+02		2.9425010e+01		1.1822208e+01		4.0264502e+01		2.0483015e+01		2.0435617e+01		4.7397732e-02
2.5000000e+02		2.5320000e+02		2.5160000e+02		2.8803114e+01		1.1668328e+01		3.9727349e+01		2.0218910e+01		2.0153421e+01		6.5489642e-02
2.5320000e+02		2.5640000e+02		2.5480000e+02		4.1450781e+01		1.6924139e+01		5.7606006e+01		2.9330983e+01		2.9200253e+01		1.3073012e-01
2.5640000e+02		2.5970000e+02		2.5805000e+02		7.7629987e+01		3.1933268e+01		1.0867006e+02		5.5354819e+01		5.5020603e+01		3.3421677e-01
2.5970000e+02		2.6320000e+02		2.6145000e+02		6.2218700e+01		2.5781420e+01		8.7721133e+01		4.4703376e+01		4.4340274e+01		3.6310114e-01
2.6320000e+02		2.6670000e+02		2.6495000e+02		1.5720744e+02		6.5602154e+01		2.2319136e+02		1.1379094e+02		1.1256176e+02		1.2291784e+00
2.6670000e+02		2.7030000e+02		2.6850000e+02		1.6644042e+02		6.9921855e+01		2.3788606e+02		1.2133819e+02		1.1962156e+02		1.7166287e+00
2.7030000e+02		2.7400000e+02		2.7215000e+02		1.4287382e+02		6.0410117e+01		2.0554187e+02		1.0489076e+02		1.0296971e+02		1.9210568e+00
2.7400000e+02		2.7780000e+02		2.7590000e+02		1.3298322e+02		5.6579070e+01		1.9254081e+02		9.8306512e+01		9.6002435e+01		2.3040774e+00
2.7780000e+02		2.8170000e+02		2.7975000e+02		9.0861797e+01		3.8889910e+01		1.3238071e+02		6.7627721e+01		6.5624201e+01		2.0035194e+00
2.8170000e+02		2.8570000e+02		2.8370000e+02		1.5868104e+02		6.8309146e+01		2.3261347e+02		1.1890429e+02		1.1450511e+02		4.3991744e+00
2.8570000e+02		2.8990000e+02		2.8780000e+02		2.2397626e+02		9.6864255e+01		3.3003840e+02		1.6877116e+02		1.6132686e+02		7.4443022e+00
2.8990000e+02		2.9410000e+02		2.9200000e+02		3.8742828e+02		1.6711380e+02		5.6996605e+02		2.9100636e+02		2.7938656e+02		1.1619796e+01
2.9410000e+02		2.9850000e+02		2.9630000e+02		3.5031753e+02		1.5245702e+02		5.2019372e+02		2.6604955e+02		2.5122395e+02		1.4825606e+01
2.9850000e+02		3.0300000e+02		3.0075000e+02		3.1117888e+02		1.3622716e+02		4.6516226e+02		2.3815566e+02		2.2171005e+02		1.6445606e+01
3.0300000e+02		3.0770000e+02		3.0535000e+02		4.1334796e+02		1.8198912e+02		6.2198886e+02		3.1881854e+02		2.9191694e+02		2.6901596e+01
3.0770000e+02		3.1250000e+02		3.1010000e+02		4.3791495e+02		1.9360076e+02		6.6234018e+02		3.3974579e+02		3.0675859e+02		3.2987205e+01
3.1250000e+02		3.1750000e+02		3.1500000e+02		4.7668852e+02		2.1034166e+02		7.2014442e+02		3.6882074e+02		3.3524503e+02		3.3575711e+01
3.1750000e+02		3.2250000e+02		3.2000000e+02		5.0859732e+02		2.2570084e+02		7.7363432e+02		3.9677630e+02		3.5310401e+02		4.3672281e+01
3.2250000e+02		3.2750000e+02		3.2500000e+02		5.8668515e+02		2.6147477e+02		8.9732027e+02		4.6068780e+02		4.0246621e+02		5.8221593e+01
3.2750000e+02		3.3250000e+02		3.3000000e+02		7.1039481e+02		3.1622087e+02		1.0858676e+03		5.5677657e+02		4.8910739e+02		6.7669179e+01
3.3250000e+02		3.3750000e+02		3.3500000e+02		6.4442258e+02		2.9083512e+02		1.0013687e+03		5.1647044e+02		4.2145809e+02		9.5012347e+01
3.3750000e+02		3.4250000e+02		3.4000000e+02		6.7087514e+02		3.0498417e+02		1.0523418e+03		5.4459826e+02		4.2255880e+02		1.2203946e+02
3.4250000e+02		3.4500000e+02		3.4375000e+02		6.4129544e+02		2.9211247e+02		1.0089332e+03		5.2245782e+02		3.9926890e+02		1.2318892e+02
3.4500000e+02		3.5500000e+02		3.5000000e+02		6.9688123e+02		3.1934907e+02		1.1055716e+03		5.7417209e+02		4.1710291e+02		1.5706918e+02
3.5500000e+02		3.6500000e+02		3.6000000e+02		6.7373475e+02		3.1122504e+02		1.0812850e+03		5.6385380e+02		3.7877228e+02		1.8508152e+02
3.6500000e+02		3.7500000e+02		3.7000000e+02		8.0678585e+02		3.7498243e+02		1.3069298e+03		6.8367253e+02		4.2852032e+02		2.5515221e+02
3.7500000e+02		3.8500000e+02		3.8000000e+02		7.3114779e+02		3.4175727e+02		1.1947874e+03		6.2694092e+02		3.6569759e+02		2.6124333e+02
3.8500000e+02		3.9500000e+02		3.9000000e+02		7.1297536e+02		3.3500716e+02		1.1746285e+03		6.1820276e+02		3.3491514e+02		2.8328763e+02
3.9500000e+02		4.0500000e+02		4.0000000e+02		1.0486559e+03		4.9509948e+02		1.7407771e+03		9.1876619e+02		4.6174871e+02		4.5701748e+02
4.0500000e+02		4.1500000e+02		4.1000000e+02		1.2120188e+03		5.7477121e+02		2.0262039e+03		1.0723182e+03		4.9918515e+02		5.7313305e+02
4.1500000e+02		4.2500000e+02		4.2000000e+02		1.2348241e+03		5.8796724e+02		2.0777932e+03		1.1024183e+03		4.7521606e+02		6.2720224e+02
4.2500000e+02		4.3500000e+02		4.3000000e+02		1.1361282e+03		5.4299339e+02		1.9232333e+03		1.0228471e+03		4.0814109e+02		6.1470604e+02
4.3500000e+02		4.4500000e+02		4.4000000e+02		1.3297494e+03		6.3765935e+02		2.2632367e+03		1.2062675e+03		4.4635427e+02		7.5991319e+02
4.4500000e+02		4.5500000e+02		4.5000000e+02		1.4649530e+03		7.0472388e+02		2.5061887e+03		1.3385566e+03		4.5824763e+02		8.8030896e+02
4.5500000e+02		4.6500000e+02		4.6000000e+02		1.5237133e+03		7.3513089e+02		2.6190833e+03		1.4015847e+03		4.4393577e+02		9.5764891e+02
4.6500000e+02		4.7500000e+02		4.7000000e+02		1.4923977e+03		7.2187781e+02		2.5760820e+03		1.3809388e+03		4.0605461e+02		9.7488415e+02
4.7500000e+02		4.8500000e+02		4.8000000e+02		1.5297683e+03		7.4178585e+02		2.6512407e+03		1.4236293e+03		3.8747367e+02		1.0361556e+03
4.8500000e+02		4.9500000e+02		4.9000000e+02		1.4205403e+03		6.9032689e+02		2.4707679e+03		1.3286880e+03		3.3591231e+02		9.9277567e+02
4.9500000e+02		5.0500000e+02		5.0000000e+02		1.4266869e+03		6.9463855e+02		2.4893023e+03		1.3403686e+03		3.1614929e+02		1.0242193e+03
5.0500000e+02		5.1500000e+02		5.1000000e+02		1.4001580e+03		6.8293878e+02		2.4502156e+03		1.3209180e+03		2.9062302e+02		1.0302950e+03
5.1500000e+02		5.2500000e+02		5.2000000e+02		1.3190863e+03		6.4463836e+02		2.3155469e+03		1.2500494e+03		2.5356930e+02		9.9648012e+02
5.2500000e+02		5.3500000e+02		5.3000000e+02		1.3758087e+03		6.7337329e+02		2.4211438e+03		1.3084046e+03		2.4784679e+02		1.0605578e+03
5.3500000e+02		5.4500000e+02		5.4000000e+02		1.3845270e+03		6.7855612e+02		2.4419540e+03		1.3208617e+03		2.3432718e+02		1.0865345e+03
5.4500000e+02		5.5500000e+02		5.5000000e+02		1.4003064e+03		6.8715458e+02		2.4749455e+03		1.3398616e+03		2.2267281e+02		1.1171887e+03
5.5500000e+02		5.6500000e+02		5.6000000e+02		1.3652491e+03		6.7093013e+02		2.4186501e+03		1.3107954e+03		2.0080621e+02		1.1099892e+03
5.6500000e+02		5.7500000e+02		5.7000000e+02		1.3559013e+03		6.6661102e+02		2.4041255e+03		1.3030797e+03		1.9484306e+02		1.1082367e+03
5.7500000e+02		5.8500000e+02		5.8000000e+02		1.3614154e+03		6.7040012e+02		2.4199796e+03		1.3133312e+03		1.7756247e+02		1.1357688e+03
5.8500000e+02		5.9500000e+02		5.9000000e+02		1.3166254e+03		6.4697589e+02		2.3339212e+03		1.2638413e+03		1.9463725e+02		1.0692040e+03
5.9500000e+02		6.0500000e+02		6.0000000e+02		1.3092118e+03		6.4523020e+02		2.3309325e+03		1.2654423e+03		1.6171984e+02		1.1037224e+03
6.0500000e+02		6.1500000e+02		6.1000000e+02		1.2895835e+03		6.3682442e+02		2.3028962e+03		1.2523235e+03		1.3784917e+02		1.1144743e+03
6.1500000e+02		6.2500000e+02		6.2000000e+02		1.2519294e+03		6.1869643e+02		2.2384365e+03		1.2179164e+03		1.2589775e+02		1.0920187e+03
6.2500000e+02		6.3500000e+02		6.3000000e+02		1.2408849e+03		6.1322193e+02		2.2189738e+03		1.2070961e+03		1.2506562e+02		1.0820305e+03
6.3500000e+02		6.4500000e+02		6.4000000e+02		1.2189410e+03		6.0304374e+02		2.1834721e+03		1.1888381e+03		1.1150164e+02		1.0773365e+03
6.4500000e+02		6.5500000e+02		6.5000000e+02		1.1925416e+03		5.8812740e+02		2.1269923e+03		1.1545022e+03		1.4061119e+02		1.0138910e+03
6.5500000e+02		6.6500000e+02		6.6000000e+02		1.1328481e+03		5.6080773e+02		2.0316368e+03		1.1065271e+03		9.7532814e+01		1.0089943e+03
6.6500000e+02		6.7500000e+02		6.7000000e+02		1.1536519e+03		5.7181997e+02		2.0728522e+03		1.1301666e+03		8.7093193e+01		1.0430734e+03
6.7500000e+02		6.8500000e+02		6.8000000e+02		1.1295455e+03		5.6015178e+02		2.0312070e+03		1.1078574e+03		8.0453374e+01		1.0274040e+03
6.8500000e+02		6.9500000e+02		6.9000000e+02		1.1109650e+03		5.4854849e+02		1.9857617e+03		1.0785410e+03		1.1994743e+02		9.5859362e+02
6.9500000e+02		7.0500000e+02		7.0000000e+02		1.0941731e+03		5.3395098e+02		1.7984159e+03		1.0492717e+03		1.2042754e+02		9.2884421e+02
7.0500000e+02		7.1500000e+02		7.1000000e+02		1.0647515e+03		5.2160466e+02		1.6243117e+03		1.0331808e+03		6.4825460e+01		9.6835533e+02
7.1500000e+02		7.2500000e+02		7.2000000e+02		1.0265317e+03		4.9087305e+02		1.5283624e+03		9.6151387e+02		1.3078316e+02		8.3073070e+02
7.2500000e+02		7.3500000e+02		7.3000000e+02		1.0059076e+03		4.5550998e+02		1.4178996e+03		8.7121178e+02		2.5732412e+02		6.1388766e+02
7.3500000e+02		7.4500000e+02		7.4000000e+02		9.7906154e+02		4.7735743e+02		1.4871786e+03		9.4344582e+02		7.2844171e+01		8.7060165e+02
7.4500000e+02		7.5500000e+02		7.5000000e+02		9.7082415e+02		4.7869327e+02		1.4918398e+03		9.5108200e+02		4.0753193e+01		9.1032880e+02
7.5500000e+02		7.6500000e+02		7.6000000e+02		9.4932481e+02		4.6851357e+02		1.4603340e+03		9.3125126e+02		3.7335868e+01		8.9391539e+02
7.6500000e+02		7.7500000e+02		7.7000000e+02		9.1637328e+02		4.5259330e+02		1.4109248e+03		8.9992782e+02		3.3993316e+01		8.6593451e+02
7.7500000e+02		7.8500000e+02		7.8000000e+02		8.9687537e+02		4.4244365e+02		1.3794271e+03		8.7925962e+02		3.6377883e+01		8.4288173e+02
7.8500000e+02		7.9500000e+02		7.9000000e+02		8.7402828e+02		4.2261052e+02		1.3173047e+03		8.3202375e+02		8.5308679e+01		7.4671507e+02
7.9500000e+02		8.0500000e+02		8.0000000e+02		8.6073642e+02		4.2075640e+02		1.3118982e+03		8.3258687e+02		5.7698161e+01		7.7488871e+02
8.0500000e+02		8.1500000e+02		8.1000000e+02		8.4764574e+02		4.1076072e+02		1.2806770e+03		8.0952037e+02		7.7576179e+01		7.3194419e+02
8.1500000e+02		8.2500000e+02		8.2000000e+02		8.2228204e+02		4.0298341e+02		1.2567845e+03		7.9836795e+02		4.9119928e+01		7.4924802e+02
8.2500000e+02		8.3500000e+02		8.3000000e+02		8.0606606e+02		3.9434615e+02		1.2299199e+03		7.8061748e+02		5.2196436e+01		7.2842104e+02
8.3500000e+02		8.4500000e+02		8.4000000e+02		7.8636165e+02		3.8445410e+02		1.1991548e+03		7.6080280e+02		5.2394155e+01		7.0840864e+02
8.4500000e+02		8.5500000e+02		8.5000000e+02		7.2980852e+02		3.5841723e+02		1.1181206e+03		7.1077642e+02		3.9159796e+01		6.7161662e+02
