Left Bin Edge (nm)	Right Bin Edge (nm)	Bin Center (nm)		TOA Flux (erg/s/nm/cm2)		BOA Actinic Flux (erg/s/nm/cm2) 
1.3000000e+02		1.3500000e+02		1.3250000e+02		1.4250000e-01		0.0000000e+00
1.3500000e+02		1.4000000e+02		1.3750000e+02		9.1063600e-02		0.0000000e+00
1.4000000e+02		1.4500000e+02		1.4250000e+02		1.0739500e-01		0.0000000e+00
1.4500000e+02		1.5000000e+02		1.4750000e+02		1.4822000e-01		0.0000000e+00
1.5000000e+02		1.5500000e+02		1.5250000e+02		2.4762300e-01		0.0000000e+00
1.5500000e+02		1.6000000e+02		1.5750000e+02		3.0285700e-01		0.0000000e+00
1.6000000e+02		1.6500000e+02		1.6250000e+02		4.2807700e-01		0.0000000e+00
1.6500000e+02		1.7000000e+02		1.6750000e+02		7.5940300e-01		0.0000000e+00
1.7000000e+02		1.7500000e+02		1.7250000e+02		1.2673900e+00		0.0000000e+00
1.7540000e+02		1.7700000e+02		1.7620000e+02		1.2266800e+00		0.0000000e+00
1.7700000e+02		1.7860000e+02		1.7780000e+02		1.4671500e+00		0.0000000e+00
1.7860000e+02		1.8020000e+02		1.7940000e+02		1.6479400e+00		0.0000000e+00
1.8020000e+02		1.8180000e+02		1.8100000e+02		2.0863300e+00		0.0000000e+00
1.8180000e+02		1.8350000e+02		1.8270000e+02		2.0418800e+00		0.0000000e+00
1.8350000e+02		1.8520000e+02		1.8440000e+02		1.8581600e+00		0.0000000e+00
1.8520000e+02		1.8690000e+02		1.8610000e+02		2.2747700e+00		0.0000000e+00
1.8690000e+02		1.8870000e+02		1.8780000e+02		2.7809900e+00		0.0000000e+00
1.8870000e+02		1.9050000e+02		1.8960000e+02		3.2670800e+00		0.0000000e+00
1.9050000e+02		1.9230000e+02		1.9140000e+02		3.8247800e+00		0.0000000e+00
1.9230000e+02		1.9420000e+02		1.9330000e+02		3.7349400e+00		0.0000000e+00
1.9420000e+02		1.9610000e+02		1.9520000e+02		5.1244000e+00		0.0000000e+00
1.9610000e+02		1.9800000e+02		1.9710000e+02		6.1048500e+00		0.0000000e+00
1.9800000e+02		2.0000000e+02		1.9900000e+02		6.3420200e+00		0.0000000e+00
2.0000000e+02		2.0200000e+02		2.0100000e+02		7.5149300e+00		2.9205900e-118
2.0200000e+02		2.0410000e+02		2.0310000e+02		8.2966900e+00		1.5778000e-99
2.0410000e+02		2.0620000e+02		2.0520000e+02		1.0149400e+01		2.5634600e-93
2.0620000e+02		2.0830000e+02		2.0730000e+02		1.2284200e+01		7.0670400e-28
2.0830000e+02		2.1050000e+02		2.0940000e+02		1.9586800e+01		6.8187300e-27
2.1050000e+02		2.1280000e+02		2.1170000e+02		2.9151400e+01		1.2632600e-25
2.1280000e+02		2.1510000e+02		2.1400000e+02		3.3725100e+01		3.7755000e-24
2.1510000e+02		2.1740000e+02		2.1630000e+02		3.3526300e+01		1.5153600e-23
2.1740000e+02		2.2000000e+02		2.1870000e+02		3.7749300e+01		4.7920800e-23
2.2000000e+02		2.2220000e+02		2.2110000e+02		4.8214500e+01		1.1294300e-23
2.2220000e+02		2.2470000e+02		2.2350000e+02		5.6925500e+01		2.0454800e-24
2.2470000e+02		2.2730000e+02		2.2600000e+02		4.5324200e+01		1.2212800e-25
2.2730000e+02		2.2990000e+02		2.2860000e+02		4.7149500e+01		3.1784400e-27
2.2990000e+02		2.3260000e+02		2.3130000e+02		4.9976000e+01		4.1776100e-29
2.3260000e+02		2.3530000e+02		2.3400000e+02		4.3421000e+01		7.2844100e-32
2.3530000e+02		2.3810000e+02		2.3670000e+02		4.7981200e+01		6.6881700e-35
2.3810000e+02		2.4100000e+02		2.3960000e+02		4.1484000e+01		4.9691600e-38
2.4100000e+02		2.4390000e+02		2.4250000e+02		6.2188400e+01		1.3058900e-40
2.4390000e+02		2.4690000e+02		2.4540000e+02		5.3723500e+01		1.4288000e-41
2.4690000e+02		2.5000000e+02		2.4850000e+02		5.0836200e+01		1.4312600e-45
2.5000000e+02		2.5320000e+02		2.5160000e+02		4.7890400e+01		1.4252200e-45
2.5320000e+02		2.5640000e+02		2.5480000e+02		7.0933400e+01		2.2409400e-49
2.5640000e+02		2.5970000e+02		2.5810000e+02		1.1553000e+02		3.7796800e-45
2.5970000e+02		2.6320000e+02		2.6150000e+02		9.8389500e+01		3.3530200e-45
2.6320000e+02		2.6670000e+02		2.6500000e+02		2.2932900e+02		2.2738200e-39
2.6670000e+02		2.7030000e+02		2.6850000e+02		2.4674100e+02		5.8251400e-34
2.7030000e+02		2.7400000e+02		2.7220000e+02		2.1711500e+02		2.2558100e-28
2.7400000e+02		2.7780000e+02		2.7590000e+02		1.9715400e+02		2.5544400e-22
2.7780000e+02		2.8170000e+02		2.7980000e+02		1.5010700e+02		2.2798700e-16
2.8170000e+02		2.8570000e+02		2.8370000e+02		2.6621400e+02		5.8204500e-11
2.8570000e+02		2.8990000e+02		2.8780000e+02		3.5351300e+02		2.0849500e-06
2.8990000e+02		2.9410000e+02		2.9200000e+02		5.6396800e+02		4.8512900e-03
2.9410000e+02		2.9850000e+02		2.9630000e+02		5.1832400e+02		4.4901800e-01
2.9850000e+02		3.0300000e+02		3.0080000e+02		4.7287300e+02		7.7189900e+00
3.0300000e+02		3.0770000e+02		3.0540000e+02		5.8580300e+02		4.9234400e+01
3.0770000e+02		3.1250000e+02		3.1010000e+02		6.6095100e+02		1.4573300e+02
3.1250000e+02		3.1750000e+02		3.1500000e+02		6.8647600e+02		2.5572800e+02
3.1750000e+02		3.2250000e+02		3.2000000e+02		7.3661700e+02		3.6328100e+02
3.2250000e+02		3.2750000e+02		3.2500000e+02		8.5003800e+02		4.9142100e+02
3.2750000e+02		3.3250000e+02		3.3000000e+02		9.8170500e+02		6.1538700e+02
3.3250000e+02		3.3750000e+02		3.3500000e+02		9.2670900e+02		6.1472400e+02
3.3750000e+02		3.4250000e+02		3.4000000e+02		9.7621300e+02		6.7203300e+02
3.4250000e+02		3.4500000e+02		3.4380000e+02		9.4128000e+02		6.6173100e+02
3.4500000e+02		3.5500000e+02		3.5000000e+02		9.7671400e+02		7.0712900e+02
3.5500000e+02		3.6500000e+02		3.6000000e+02		1.0047900e+03		7.5644800e+02
3.6500000e+02		3.7500000e+02		3.7000000e+02		1.1334100e+03		8.8359800e+02
3.7500000e+02		3.8500000e+02		3.8000000e+02		1.0774300e+03		8.6680700e+02
3.8500000e+02		3.9500000e+02		3.9000000e+02		1.0396200e+03		8.6052700e+02
3.9500000e+02		4.0500000e+02		4.0000000e+02		1.4906300e+03		1.2660300e+03
4.0500000e+02		4.1500000e+02		4.1000000e+02		1.7596600e+03		1.5294500e+03
4.1500000e+02		4.2500000e+02		4.2000000e+02		1.7934800e+03		1.5919400e+03
4.2500000e+02		4.3500000e+02		4.3000000e+02		1.6500900e+03		1.4925900e+03
4.3500000e+02		4.4500000e+02		4.4000000e+02		1.8519900e+03		1.7036100e+03
4.4500000e+02		4.5500000e+02		4.5000000e+02		2.0360800e+03		1.9020300e+03
4.5500000e+02		4.6500000e+02		4.6000000e+02		2.0479900e+03		1.9372100e+03
4.6500000e+02		4.7500000e+02		4.7000000e+02		2.0297900e+03		1.9442100e+03
4.7500000e+02		4.8500000e+02		4.8000000e+02		2.0206200e+03		1.9524000e+03
4.8500000e+02		4.9500000e+02		4.9000000e+02		1.9388300e+03		1.8914000e+03
4.9500000e+02		5.0500000e+02		5.0000000e+02		1.9358300e+03		1.8998600e+03
5.0500000e+02		5.1500000e+02		5.1000000e+02		1.9017600e+03		1.8755200e+03
5.1500000e+02		5.2500000e+02		5.2000000e+02		1.8193300e+03		1.8054000e+03
5.2500000e+02		5.3500000e+02		5.3000000e+02		1.8825000e+03		1.8665800e+03
5.3500000e+02		5.4500000e+02		5.4000000e+02		1.8476400e+03		1.8390900e+03
5.4500000e+02		5.5500000e+02		5.5000000e+02		1.8321100e+03		1.8296500e+03
5.5500000e+02		5.6500000e+02		5.6000000e+02		1.7958500e+03		1.7908500e+03
5.6500000e+02		5.7500000e+02		5.7000000e+02		1.8131600e+03		1.8027700e+03
5.7500000e+02		5.8500000e+02		5.8000000e+02		1.8367200e+03		1.8374200e+03
5.8500000e+02		5.9500000e+02		5.9000000e+02		1.7921200e+03		1.8050200e+03
5.9500000e+02		6.0500000e+02		6.0000000e+02		1.7622500e+03		1.7732600e+03
6.0500000e+02		6.1500000e+02		6.1000000e+02		1.7235900e+03		1.7487000e+03
6.1500000e+02		6.2500000e+02		6.2000000e+02		1.6957900e+03		1.7378700e+03
6.2500000e+02		6.3500000e+02		6.3000000e+02		1.6531000e+03		1.7089800e+03
6.3500000e+02		6.4500000e+02		6.4000000e+02		1.6272700e+03		1.7001900e+03
6.4500000e+02		6.5500000e+02		6.5000000e+02		1.5563700e+03		1.6361400e+03
6.5500000e+02		6.6500000e+02		6.6000000e+02		1.5418200e+03		1.6322200e+03
6.6500000e+02		6.7500000e+02		6.7000000e+02		1.5514400e+03		1.6518800e+03
6.7500000e+02		6.8500000e+02		6.8000000e+02		1.5257000e+03		1.6335600e+03
6.8500000e+02		6.9500000e+02		6.9000000e+02		1.4719000e+03		1.5845100e+03
6.9500000e+02		7.0500000e+02		7.0000000e+02		1.4593900e+03		1.5773500e+03
7.0500000e+02		7.1500000e+02		7.1000000e+02		1.4024500e+03		1.5211800e+03
7.1500000e+02		7.2500000e+02		7.2000000e+02		1.3608900e+03		1.4810100e+03
7.2500000e+02		7.3500000e+02		7.3000000e+02		1.3368000e+03		1.4588400e+03
7.3500000e+02		7.4500000e+02		7.4000000e+02		1.2918800e+03		1.4132800e+03
7.4500000e+02		7.5500000e+02		7.5000000e+02		1.2746500e+03		1.3975800e+03
7.5500000e+02		7.6500000e+02		7.6000000e+02		1.2421900e+03		1.3650700e+03
7.6500000e+02		7.7500000e+02		7.7000000e+02		1.1976600e+03		1.3183100e+03
7.7500000e+02		7.8500000e+02		7.8000000e+02		1.1848600e+03		1.3055800e+03
7.8500000e+02		7.9500000e+02		7.9000000e+02		1.1597900e+03		1.2804100e+03
7.9500000e+02		8.0500000e+02		8.0000000e+02		1.1303900e+03		1.2501100e+03
8.0500000e+02		8.1500000e+02		8.1000000e+02		1.0894400e+03		1.2057200e+03
8.1500000e+02		8.2500000e+02		8.2000000e+02		1.0640400e+03		1.1790100e+03
8.2500000e+02		8.3500000e+02		8.3000000e+02		1.0320600e+03		1.1449800e+03
8.3500000e+02		8.4500000e+02		8.4000000e+02		1.0032100e+03		1.1139500e+03
8.4500000e+02		8.5500000e+02		8.5000000e+02		9.5867600e+02		1.0652700e+03
