Wavelength (nm)     Rayleigh Scattering XC (cm2/molecule)
1.0000000e+02        8.6915117e-24
1.0010000e+02        8.6444251e-24
1.0020000e+02        8.5976561e-24
1.0030000e+02        8.5512020e-24
1.0040000e+02        8.5050603e-24
1.0050000e+02        8.4592286e-24
1.0060000e+02        8.4137044e-24
1.0070000e+02        8.3684852e-24
1.0080000e+02        8.3235686e-24
1.0090000e+02        8.2789522e-24
1.0100000e+02        8.2346336e-24
1.0110000e+02        8.1906104e-24
1.0120000e+02        8.1468803e-24
1.0130000e+02        8.1034410e-24
1.0140000e+02        8.0602902e-24
1.0150000e+02        8.0174256e-24
1.0160000e+02        7.9748449e-24
1.0170000e+02        7.9325460e-24
1.0180000e+02        7.8905265e-24
1.0190000e+02        7.8487844e-24
1.0200000e+02        7.8073174e-24
1.0210000e+02        7.7661233e-24
1.0220000e+02        7.7252001e-24
1.0230000e+02        7.6845456e-24
1.0240000e+02        7.6441577e-24
1.0250000e+02        7.6040344e-24
1.0260000e+02        7.5641735e-24
1.0270000e+02        7.5245731e-24
1.0280000e+02        7.4852310e-24
1.0290000e+02        7.4461454e-24
1.0300000e+02        7.4073142e-24
1.0310000e+02        7.3687355e-24
1.0320000e+02        7.3304072e-24
1.0330000e+02        7.2923275e-24
1.0340000e+02        7.2544945e-24
1.0350000e+02        7.2169062e-24
1.0360000e+02        7.1795608e-24
1.0370000e+02        7.1424563e-24
1.0380000e+02        7.1055910e-24
1.0390000e+02        7.0689630e-24
1.0400000e+02        7.0325705e-24
1.0410000e+02        6.9964117e-24
1.0420000e+02        6.9604848e-24
1.0430000e+02        6.9247880e-24
1.0440000e+02        6.8893196e-24
1.0450000e+02        6.8540778e-24
1.0460000e+02        6.8190609e-24
1.0470000e+02        6.7842673e-24
1.0480000e+02        6.7496951e-24
1.0490000e+02        6.7153428e-24
1.0500000e+02        6.6812087e-24
1.0510000e+02        6.6472911e-24
1.0520000e+02        6.6135883e-24
1.0530000e+02        6.5800989e-24
1.0540000e+02        6.5468210e-24
1.0550000e+02        6.5137533e-24
1.0560000e+02        6.4808940e-24
1.0570000e+02        6.4482417e-24
1.0580000e+02        6.4157947e-24
1.0590000e+02        6.3835515e-24
1.0600000e+02        6.3515107e-24
1.0610000e+02        6.3196706e-24
1.0620000e+02        6.2880299e-24
1.0630000e+02        6.2565869e-24
1.0640000e+02        6.2253403e-24
1.0650000e+02        6.1942885e-24
1.0660000e+02        6.1634302e-24
1.0670000e+02        6.1327639e-24
1.0680000e+02        6.1022881e-24
1.0690000e+02        6.0720015e-24
1.0700000e+02        6.0419026e-24
1.0710000e+02        6.0119901e-24
1.0720000e+02        5.9822626e-24
1.0730000e+02        5.9527188e-24
1.0740000e+02        5.9233572e-24
1.0750000e+02        5.8941765e-24
1.0760000e+02        5.8651755e-24
1.0770000e+02        5.8363528e-24
1.0780000e+02        5.8077070e-24
1.0790000e+02        5.7792369e-24
1.0800000e+02        5.7509413e-24
1.0810000e+02        5.7228187e-24
1.0820000e+02        5.6948681e-24
1.0830000e+02        5.6670880e-24
1.0840000e+02        5.6394774e-24
1.0850000e+02        5.6120348e-24
1.0860000e+02        5.5847592e-24
1.0870000e+02        5.5576493e-24
1.0880000e+02        5.5307039e-24
1.0890000e+02        5.5039219e-24
1.0900000e+02        5.4773020e-24
1.0910000e+02        5.4508430e-24
1.0920000e+02        5.4245439e-24
1.0930000e+02        5.3984034e-24
1.0940000e+02        5.3724204e-24
1.0950000e+02        5.3465938e-24
1.0960000e+02        5.3209225e-24
1.0970000e+02        5.2954053e-24
1.0980000e+02        5.2700412e-24
1.0990000e+02        5.2448290e-24
1.1000000e+02        5.2197677e-24
1.1010000e+02        5.1948561e-24
1.1020000e+02        5.1700933e-24
1.1030000e+02        5.1454781e-24
1.1040000e+02        5.1210096e-24
1.1050000e+02        5.0966866e-24
1.1060000e+02        5.0725081e-24
1.1070000e+02        5.0484732e-24
1.1080000e+02        5.0245807e-24
1.1090000e+02        5.0008297e-24
1.1100000e+02        4.9772192e-24
1.1110000e+02        4.9537482e-24
1.1120000e+02        4.9304157e-24
1.1130000e+02        4.9072208e-24
1.1140000e+02        4.8841624e-24
1.1150000e+02        4.8612395e-24
1.1160000e+02        4.8384514e-24
1.1170000e+02        4.8157970e-24
1.1180000e+02        4.7932753e-24
1.1190000e+02        4.7708854e-24
1.1200000e+02        4.7486265e-24
1.1210000e+02        4.7264976e-24
1.1220000e+02        4.7044978e-24
1.1230000e+02        4.6826262e-24
1.1240000e+02        4.6608819e-24
1.1250000e+02        4.6392640e-24
1.1260000e+02        4.6177717e-24
1.1270000e+02        4.5964041e-24
1.1280000e+02        4.5751602e-24
1.1290000e+02        4.5540393e-24
1.1300000e+02        4.5330405e-24
1.1310000e+02        4.5121630e-24
1.1320000e+02        4.4914059e-24
1.1330000e+02        4.4707684e-24
1.1340000e+02        4.4502497e-24
1.1350000e+02        4.4298489e-24
1.1360000e+02        4.4095652e-24
1.1370000e+02        4.3893979e-24
1.1380000e+02        4.3693462e-24
1.1390000e+02        4.3494092e-24
1.1400000e+02        4.3295862e-24
1.1410000e+02        4.3098763e-24
1.1420000e+02        4.2902789e-24
1.1430000e+02        4.2707931e-24
1.1440000e+02        4.2514182e-24
1.1450000e+02        4.2321535e-24
1.1460000e+02        4.2129981e-24
1.1470000e+02        4.1939514e-24
1.1480000e+02        4.1750126e-24
1.1490000e+02        4.1561810e-24
1.1500000e+02        4.1374558e-24
1.1510000e+02        4.1188364e-24
1.1520000e+02        4.1003220e-24
1.1530000e+02        4.0819119e-24
1.1540000e+02        4.0636054e-24
1.1550000e+02        4.0454018e-24
1.1560000e+02        4.0273004e-24
1.1570000e+02        4.0093006e-24
1.1580000e+02        3.9914016e-24
1.1590000e+02        3.9736028e-24
1.1600000e+02        3.9559036e-24
1.1610000e+02        3.9383031e-24
1.1620000e+02        3.9208009e-24
1.1630000e+02        3.9033961e-24
1.1640000e+02        3.8860883e-24
1.1650000e+02        3.8688767e-24
1.1660000e+02        3.8517606e-24
1.1670000e+02        3.8347396e-24
1.1680000e+02        3.8178128e-24
1.1690000e+02        3.8009798e-24
1.1700000e+02        3.7842398e-24
1.1710000e+02        3.7675924e-24
1.1720000e+02        3.7510367e-24
1.1730000e+02        3.7345723e-24
1.1740000e+02        3.7181986e-24
1.1750000e+02        3.7019149e-24
1.1760000e+02        3.6857207e-24
1.1770000e+02        3.6696153e-24
1.1780000e+02        3.6535983e-24
1.1790000e+02        3.6376689e-24
1.1800000e+02        3.6218267e-24
1.1810000e+02        3.6060710e-24
1.1820000e+02        3.5904013e-24
1.1830000e+02        3.5748171e-24
1.1840000e+02        3.5593177e-24
1.1850000e+02        3.5439027e-24
1.1860000e+02        3.5285714e-24
1.1870000e+02        3.5133234e-24
1.1880000e+02        3.4981580e-24
1.1890000e+02        3.4830749e-24
1.1900000e+02        3.4680733e-24
1.1910000e+02        3.4531528e-24
1.1920000e+02        3.4383129e-24
1.1930000e+02        3.4235530e-24
1.1940000e+02        3.4088727e-24
1.1950000e+02        3.3942714e-24
1.1960000e+02        3.3797486e-24
1.1970000e+02        3.3653038e-24
1.1980000e+02        3.3509364e-24
1.1990000e+02        3.3366461e-24
1.2000000e+02        3.3224323e-24
1.2010000e+02        3.3082945e-24
1.2020000e+02        3.2942323e-24
1.2030000e+02        3.2802451e-24
1.2040000e+02        3.2663325e-24
1.2050000e+02        3.2524939e-24
1.2060000e+02        3.2387290e-24
1.2070000e+02        3.2250372e-24
1.2080000e+02        3.2114181e-24
1.2090000e+02        3.1978712e-24
1.2100000e+02        3.1843961e-24
1.2110000e+02        3.1709923e-24
1.2120000e+02        3.1576594e-24
1.2130000e+02        3.1443969e-24
1.2140000e+02        3.1312043e-24
1.2150000e+02        3.1180813e-24
1.2160000e+02        3.1050273e-24
1.2170000e+02        3.0920420e-24
1.2180000e+02        3.0791249e-24
1.2190000e+02        3.0662755e-24
1.2200000e+02        3.0534936e-24
1.2210000e+02        3.0407785e-24
1.2220000e+02        3.0281300e-24
1.2230000e+02        3.0155476e-24
1.2240000e+02        3.0030309e-24
1.2250000e+02        2.9905794e-24
1.2260000e+02        2.9781928e-24
1.2270000e+02        2.9658707e-24
1.2280000e+02        2.9536126e-24
1.2290000e+02        2.9414182e-24
1.2300000e+02        2.9292871e-24
1.2310000e+02        2.9172188e-24
1.2320000e+02        2.9052130e-24
1.2330000e+02        2.8932693e-24
1.2340000e+02        2.8813873e-24
1.2350000e+02        2.8695666e-24
1.2360000e+02        2.8578069e-24
1.2370000e+02        2.8461077e-24
1.2380000e+02        2.8344687e-24
1.2390000e+02        2.8228896e-24
1.2400000e+02        2.8113699e-24
1.2410000e+02        2.7999093e-24
1.2420000e+02        2.7885074e-24
1.2430000e+02        2.7771639e-24
1.2440000e+02        2.7658784e-24
1.2450000e+02        2.7546505e-24
1.2460000e+02        2.7434800e-24
1.2470000e+02        2.7323664e-24
1.2480000e+02        2.7213094e-24
1.2490000e+02        2.7103086e-24
1.2500000e+02        2.6993638e-24
1.2510000e+02        2.6884745e-24
1.2520000e+02        2.6776405e-24
1.2530000e+02        2.6668613e-24
1.2540000e+02        2.6561367e-24
1.2550000e+02        2.6454664e-24
1.2560000e+02        2.6348499e-24
1.2570000e+02        2.6242870e-24
1.2580000e+02        2.6137774e-24
1.2590000e+02        2.6033207e-24
1.2600000e+02        2.5929166e-24
1.2610000e+02        2.5825648e-24
1.2620000e+02        2.5722650e-24
1.2630000e+02        2.5620168e-24
1.2640000e+02        2.5518200e-24
1.2650000e+02        2.5416743e-24
1.2660000e+02        2.5315792e-24
1.2670000e+02        2.5215347e-24
1.2680000e+02        2.5115402e-24
1.2690000e+02        2.5015956e-24
1.2700000e+02        2.4917005e-24
1.2710000e+02        2.4818546e-24
1.2720000e+02        2.4720577e-24
1.2730000e+02        2.4623094e-24
1.2740000e+02        2.4526095e-24
1.2750000e+02        2.4429577e-24
1.2760000e+02        2.4333536e-24
1.2770000e+02        2.4237971e-24
1.2780000e+02        2.4142878e-24
1.2790000e+02        2.4048254e-24
1.2800000e+02        2.3954097e-24
1.2810000e+02        2.3860403e-24
1.2820000e+02        2.3767171e-24
1.2830000e+02        2.3674397e-24
1.2840000e+02        2.3582079e-24
1.2850000e+02        2.3490214e-24
1.2860000e+02        2.3398799e-24
1.2870000e+02        2.3307832e-24
1.2880000e+02        2.3217310e-24
1.2890000e+02        2.3127230e-24
1.2900000e+02        2.3037591e-24
1.2910000e+02        2.2948388e-24
1.2920000e+02        2.2859621e-24
1.2930000e+02        2.2771285e-24
1.2940000e+02        2.2683379e-24
1.2950000e+02        2.2595900e-24
1.2960000e+02        2.2508846e-24
1.2970000e+02        2.2422214e-24
1.2980000e+02        2.2336002e-24
1.2990000e+02        2.2250207e-24
1.3000000e+02        2.2164827e-24
1.3010000e+02        2.2079859e-24
1.3020000e+02        2.1995301e-24
1.3030000e+02        2.1911151e-24
1.3040000e+02        2.1827406e-24
1.3050000e+02        2.1744065e-24
1.3060000e+02        2.1661124e-24
1.3070000e+02        2.1578581e-24
1.3080000e+02        2.1496434e-24
1.3090000e+02        2.1414681e-24
1.3100000e+02        2.1333319e-24
1.3110000e+02        2.1252347e-24
1.3120000e+02        2.1171762e-24
1.3130000e+02        2.1091561e-24
1.3140000e+02        2.1011743e-24
1.3150000e+02        2.0932305e-24
1.3160000e+02        2.0853246e-24
1.3170000e+02        2.0774562e-24
1.3180000e+02        2.0696253e-24
1.3190000e+02        2.0618315e-24
1.3200000e+02        2.0540747e-24
1.3210000e+02        2.0463546e-24
1.3220000e+02        2.0386711e-24
1.3230000e+02        2.0310239e-24
1.3240000e+02        2.0234128e-24
1.3250000e+02        2.0158377e-24
1.3260000e+02        2.0082982e-24
1.3270000e+02        2.0007943e-24
1.3280000e+02        1.9933257e-24
1.3290000e+02        1.9858923e-24
1.3300000e+02        1.9784937e-24
1.3310000e+02        1.9711299e-24
1.3320000e+02        1.9638006e-24
1.3330000e+02        1.9565056e-24
1.3340000e+02        1.9492448e-24
1.3350000e+02        1.9420179e-24
1.3360000e+02        1.9348247e-24
1.3370000e+02        1.9276651e-24
1.3380000e+02        1.9205390e-24
1.3390000e+02        1.9134459e-24
1.3400000e+02        1.9063859e-24
1.3410000e+02        1.8993588e-24
1.3420000e+02        1.8923642e-24
1.3430000e+02        1.8854021e-24
1.3440000e+02        1.8784723e-24
1.3450000e+02        1.8715746e-24
1.3460000e+02        1.8647088e-24
1.3470000e+02        1.8578747e-24
1.3480000e+02        1.8510722e-24
1.3490000e+02        1.8443010e-24
1.3500000e+02        1.8375611e-24
1.3510000e+02        1.8308522e-24
1.3520000e+02        1.8241742e-24
1.3530000e+02        1.8175269e-24
1.3540000e+02        1.8109101e-24
1.3550000e+02        1.8043237e-24
1.3560000e+02        1.7977674e-24
1.3570000e+02        1.7912412e-24
1.3580000e+02        1.7847449e-24
1.3590000e+02        1.7782782e-24
1.3600000e+02        1.7718411e-24
1.3610000e+02        1.7654333e-24
1.3620000e+02        1.7590547e-24
1.3630000e+02        1.7527052e-24
1.3640000e+02        1.7463846e-24
1.3650000e+02        1.7400927e-24
1.3660000e+02        1.7338294e-24
1.3670000e+02        1.7275945e-24
1.3680000e+02        1.7213879e-24
1.3690000e+02        1.7152094e-24
1.3700000e+02        1.7090588e-24
1.3710000e+02        1.7029360e-24
1.3720000e+02        1.6968409e-24
1.3730000e+02        1.6907733e-24
1.3740000e+02        1.6847330e-24
1.3750000e+02        1.6787200e-24
1.3760000e+02        1.6727340e-24
1.3770000e+02        1.6667749e-24
1.3780000e+02        1.6608426e-24
1.3790000e+02        1.6549368e-24
1.3800000e+02        1.6490576e-24
1.3810000e+02        1.6432047e-24
1.3820000e+02        1.6373780e-24
1.3830000e+02        1.6315774e-24
1.3840000e+02        1.6258026e-24
1.3850000e+02        1.6200537e-24
1.3860000e+02        1.6143303e-24
1.3870000e+02        1.6086325e-24
1.3880000e+02        1.6029600e-24
1.3890000e+02        1.5973128e-24
1.3900000e+02        1.5916906e-24
1.3910000e+02        1.5860934e-24
1.3920000e+02        1.5805210e-24
1.3930000e+02        1.5749733e-24
1.3940000e+02        1.5694501e-24
1.3950000e+02        1.5639514e-24
1.3960000e+02        1.5584770e-24
1.3970000e+02        1.5530267e-24
1.3980000e+02        1.5476005e-24
1.3990000e+02        1.5421982e-24
1.4000000e+02        1.5368197e-24
1.4010000e+02        1.5314648e-24
1.4020000e+02        1.5261335e-24
1.4030000e+02        1.5208256e-24
1.4040000e+02        1.5155409e-24
1.4050000e+02        1.5102795e-24
1.4060000e+02        1.5050410e-24
1.4070000e+02        1.4998255e-24
1.4080000e+02        1.4946328e-24
1.4090000e+02        1.4894628e-24
1.4100000e+02        1.4843153e-24
1.4110000e+02        1.4791902e-24
1.4120000e+02        1.4740875e-24
1.4130000e+02        1.4690070e-24
1.4140000e+02        1.4639486e-24
1.4150000e+02        1.4589121e-24
1.4160000e+02        1.4538975e-24
1.4170000e+02        1.4489047e-24
1.4180000e+02        1.4439335e-24
1.4190000e+02        1.4389838e-24
1.4200000e+02        1.4340555e-24
1.4210000e+02        1.4291485e-24
1.4220000e+02        1.4242626e-24
1.4230000e+02        1.4193979e-24
1.4240000e+02        1.4145541e-24
1.4250000e+02        1.4097312e-24
1.4260000e+02        1.4049290e-24
1.4270000e+02        1.4001475e-24
1.4280000e+02        1.3953865e-24
1.4290000e+02        1.3906459e-24
1.4300000e+02        1.3859257e-24
1.4310000e+02        1.3812256e-24
1.4320000e+02        1.3765457e-24
1.4330000e+02        1.3718858e-24
1.4340000e+02        1.3672458e-24
1.4350000e+02        1.3626255e-24
1.4360000e+02        1.3580250e-24
1.4370000e+02        1.3534441e-24
1.4380000e+02        1.3488827e-24
1.4390000e+02        1.3443407e-24
1.4400000e+02        1.3398180e-24
1.4410000e+02        1.3353145e-24
1.4420000e+02        1.3308301e-24
1.4430000e+02        1.3263647e-24
1.4440000e+02        1.3219182e-24
1.4450000e+02        1.3174905e-24
1.4460000e+02        1.3130816e-24
1.4470000e+02        1.3086912e-24
1.4480000e+02        1.3043194e-24
1.4490000e+02        1.2999661e-24
1.4500000e+02        1.2956310e-24
1.4510000e+02        1.2913142e-24
1.4520000e+02        1.2870156e-24
1.4530000e+02        1.2827350e-24
1.4540000e+02        1.2784724e-24
1.4550000e+02        1.2742277e-24
1.4560000e+02        1.2700007e-24
1.4570000e+02        1.2657915e-24
1.4580000e+02        1.2615998e-24
1.4590000e+02        1.2574257e-24
1.4600000e+02        1.2532690e-24
1.4610000e+02        1.2491297e-24
1.4620000e+02        1.2450076e-24
1.4630000e+02        1.2409027e-24
1.4640000e+02        1.2368149e-24
1.4650000e+02        1.2327441e-24
1.4660000e+02        1.2286902e-24
1.4670000e+02        1.2246531e-24
1.4680000e+02        1.2206328e-24
1.4690000e+02        1.2166291e-24
1.4700000e+02        1.2126420e-24
1.4710000e+02        1.2086714e-24
1.4720000e+02        1.2047172e-24
1.4730000e+02        1.2007794e-24
1.4740000e+02        1.1968578e-24
1.4750000e+02        1.1929523e-24
1.4760000e+02        1.1890630e-24
1.4770000e+02        1.1851896e-24
1.4780000e+02        1.1813322e-24
1.4790000e+02        1.1774907e-24
1.4800000e+02        1.1736649e-24
1.4810000e+02        1.1698548e-24
1.4820000e+02        1.1660603e-24
1.4830000e+02        1.1622814e-24
1.4840000e+02        1.1585179e-24
1.4850000e+02        1.1547699e-24
1.4860000e+02        1.1510371e-24
1.4870000e+02        1.1473196e-24
1.4880000e+02        1.1436172e-24
1.4890000e+02        1.1399299e-24
1.4900000e+02        1.1362576e-24
1.4910000e+02        1.1326003e-24
1.4920000e+02        1.1289578e-24
1.4930000e+02        1.1253301e-24
1.4940000e+02        1.1217172e-24
1.4950000e+02        1.1181189e-24
1.4960000e+02        1.1145351e-24
1.4970000e+02        1.1109659e-24
1.4980000e+02        1.1074111e-24
1.4990000e+02        1.1038707e-24
1.5000000e+02        1.1003445e-24
1.5010000e+02        1.0968326e-24
1.5020000e+02        1.0933349e-24
1.5030000e+02        1.0898512e-24
1.5040000e+02        1.0863815e-24
1.5050000e+02        1.0829258e-24
1.5060000e+02        1.0794840e-24
1.5070000e+02        1.0760560e-24
1.5080000e+02        1.0726417e-24
1.5090000e+02        1.0692412e-24
1.5100000e+02        1.0658542e-24
1.5110000e+02        1.0624808e-24
1.5120000e+02        1.0591209e-24
1.5130000e+02        1.0557744e-24
1.5140000e+02        1.0524412e-24
1.5150000e+02        1.0491214e-24
1.5160000e+02        1.0458147e-24
1.5170000e+02        1.0425213e-24
1.5180000e+02        1.0392409e-24
1.5190000e+02        1.0359736e-24
1.5200000e+02        1.0327192e-24
1.5210000e+02        1.0294778e-24
1.5220000e+02        1.0262492e-24
1.5230000e+02        1.0230334e-24
1.5240000e+02        1.0198303e-24
1.5250000e+02        1.0166399e-24
1.5260000e+02        1.0134621e-24
1.5270000e+02        1.0102969e-24
1.5280000e+02        1.0071441e-24
1.5290000e+02        1.0040038e-24
1.5300000e+02        1.0008758e-24
1.5310000e+02        9.9776015e-25
1.5320000e+02        9.9465675e-25
1.5330000e+02        9.9156554e-25
1.5340000e+02        9.8848647e-25
1.5350000e+02        9.8541947e-25
1.5360000e+02        9.8236450e-25
1.5370000e+02        9.7932149e-25
1.5380000e+02        9.7629039e-25
1.5390000e+02        9.7327115e-25
1.5400000e+02        9.7026369e-25
1.5410000e+02        9.6726798e-25
1.5420000e+02        9.6428396e-25
1.5430000e+02        9.6131156e-25
1.5440000e+02        9.5835074e-25
1.5450000e+02        9.5540144e-25
1.5460000e+02        9.5246361e-25
1.5470000e+02        9.4953719e-25
1.5480000e+02        9.4662213e-25
1.5490000e+02        9.4371838e-25
1.5500000e+02        9.4082588e-25
1.5510000e+02        9.3794458e-25
1.5520000e+02        9.3507443e-25
1.5530000e+02        9.3221538e-25
1.5540000e+02        9.2936737e-25
1.5550000e+02        9.2653036e-25
1.5560000e+02        9.2370429e-25
1.5570000e+02        9.2088911e-25
1.5580000e+02        9.1808477e-25
1.5590000e+02        9.1529122e-25
1.5600000e+02        9.1250841e-25
1.5610000e+02        9.0973629e-25
1.5620000e+02        9.0697481e-25
1.5630000e+02        9.0422393e-25
1.5640000e+02        9.0148359e-25
1.5650000e+02        8.9875374e-25
1.5660000e+02        8.9603433e-25
1.5670000e+02        8.9332533e-25
1.5680000e+02        8.9062667e-25
